;Time;Thrust;Pressure1;Pressure2;Weight;Current;Voltage;Battery12V;Battery24V
0;0.0;20;2;1;-532;-0.00018750572222052677;-0.00018750572222052677;2.3237584154789883;3.871055635242775
1;0.1;16;2;1;-531;-0.00018750572222052677;-0.00018750572222052677;2.322633381145665;3.8688055665761283
2;0.2;20;1;0;-532;0.0;-0.00037501144444105353;2.321695852534562;3.8716181524094364
3;0.3;20;1;1;-530;-0.00018750572222052677;0.0;2.321320841090121;3.8708681295205545
4;0.5;22;1;1;-532;0.0;0.0;2.323945921201209;3.871805658131657
5;0.6;18;2;2;-530;0.0;-0.00018750572222052677;2.3218833582567826;3.8691805780205697
6;0.7;19;1;0;-531;-0.00018750572222052677;0.0;2.3246959440900907;3.872368175298319
7;0.8;17;2;2;-532;0.0;0.0;2.3245084383678702;3.8716181524094364
8;0.9;20;2;2;-531;-0.00018750572222052677;-0.00037501144444105353;2.321320841090121;3.8721806695760983
9;1.0;17;1;2;-533;-0.00018750572222052677;-0.00018750572222052677;2.323945921201209;3.8719931638538774
10;1.1;21;0;2;-532;0.0;0.0;2.321695852534562;3.8712431409649954
11;1.3;17;1;3;-532;-0.00018750572222052677;-0.00018750572222052677;2.3218833582567826;3.8712431409649954
12;1.4;20;2;2;-532;-0.00018750572222052677;-0.00037501144444105353;2.3228208868678855;3.8727431867427597
13;1.5;17;1;1;-531;-0.00018750572222052677;-0.00018750572222052677;2.321695852534562;3.871430646687216
14;1.6;22;1;2;-532;-0.00037501144444105353;-0.00018750572222052677;2.322633381145665;3.874993255409406
15;1.7;19;1;2;-531;0.0;3.872368175298319;2.3231958983123264;3.8708681295205545
16;1.8;0;1;3;-531;-0.00018750572222052677;-0.00018750572222052677;2.323945921201209;3.8712431409649954
17;1.9;21;1;2;-531;0.0;0.0;2.323008392590106;3.872368175298319
18;2.1;18;0;2;-530;-0.00018750572222052677;-0.00037501144444105353;2.323383404034547;3.870493118076113
19;2.2;19;1;1;-533;-0.00018750572222052677;0.0;2.324883449812311;3.8719931638538774
20;2.3;18;1;0;-532;-0.00018750572222052677;-0.00018750572222052677;2.322633381145665;3.871430646687216
21;2.4;20;1;1;-531;-0.00018750572222052677;0.0;2.323945921201209;3.8719931638538774
22;2.5;19;1;1;-532;0.0;-0.00018750572222052677;2.322633381145665;3.8712431409649954
23;2.6;20;0;2;-530;-0.00018750572222052677;0.0;2.3241334269234293;3.8729306924649802
24;2.7;19;2;1;-533;-0.00018750572222052677;-0.00018750572222052677;2.3252584612567526;3.871055635242775
25;2.8;19;1;1;-531;0.0;-0.00018750572222052677;2.3231958983123264;3.872368175298319
26;3.0;18;1;1;-531;-0.00018750572222052677;-0.00018750572222052677;2.3252584612567526;3.8731181981872007
27;3.1;17;2;1;-530;-0.00037501144444105353;-0.00018750572222052677;2.3241334269234293;3.870680623798334
28;3.2;22;0;2;-532;0.0;-0.00018750572222052677;2.323945921201209;3.871430646687216
29;3.3;18;2;1;-531;-0.00018750572222052677;0.0;2.3235709097567674;3.8719931638538774
30;3.4;20;1;3;-532;-0.00018750572222052677;-0.00018750572222052677;2.3241334269234293;3.8719931638538774
31;3.5;19;3;2;-532;-0.00018750572222052677;-0.00018750572222052677;2.3241334269234293;3.8703056123538926
32;3.6;21;1;0;-532;-0.00018750572222052677;-0.00018750572222052677;2.3245084383678702;2.3245084383678702
33;3.8;18;2;1;-532;3.8727431867427597;-0.00018750572222052677;2.3220708639790035;3.869743095187231
34;3.9;19;0;1;-532;-0.00018750572222052677;-0.00018750572222052677;2.321695852534562;3.869743095187231
35;4.0;19;1;2;-531;-0.00018750572222052677;-0.00018750572222052677;2.322633381145665;3.870118106631672
36;4.1;20;2;0;-532;-0.00018750572222052677;-0.00018750572222052677;2.3203833124790187;3.870493118076113
37;4.2;18;2;1;-532;-0.00018750572222052677;-0.00018750572222052677;2.323945921201209;3.8695555894650107
38;4.3;20;2;0;-531;-0.00018750572222052677;-0.00018750572222052677;2.3224458754234445;3.870118106631672
39;4.4;22;0;2;-531;-0.00018750572222052677;-0.00018750572222052677;2.322258369701224;3.8699306009094516
40;4.6;18;1;1;-531;-0.00018750572222052677;-0.00018750572222052677;2.321695852534562;3.869743095187231
41;4.7;19;0;1;-532;-0.00037501144444105353;-0.00018750572222052677;2.3228208868678855;3.8699306009094516
42;4.8;20;1;3;-531;-0.00018750572222052677;0.0;2.3215083468123416;3.8691805780205697
43;4.9;19;1;1;-532;-0.00037501144444105353;-0.00037501144444105353;2.322633381145665;3.8708681295205545
44;5.0;20;1;0;-531;-0.00018750572222052677;-0.00018750572222052677;2.3228208868678855;3.869743095187231
45;5.1;19;2;2;-532;-0.00018750572222052677;-0.00018750572222052677;2.3205708182012392;3.8699306009094516
46;5.2;21;2;1;-530;-0.00018750572222052677;-0.00037501144444105353;2.323383404034547;3.870118106631672
47;5.4;22;1;1;-531;-0.00018750572222052677;0.0;2.323008392590106;3.871055635242775
48;5.5;16;1;2;-531;-0.00018750572222052677;-0.00018750572222052677;2.322258369701224;3.871055635242775
49;5.6;19;1;1;-531;-0.00018750572222052677;-0.00018750572222052677;2.321695852534562;3.870493118076113
50;5.7;19;1;1;-533;0.0;0.0;2.326195989867855;3.8721806695760983
51;5.8;22;0;2;-532;3.8740557267983036;-0.00037501144444105353;2.3220708639790035;3.8716181524094364
52;5.9;22;2;1;-533;-0.00018750572222052677;-0.00018750572222052677;2.323008392590106;3.8699306009094516
53;6.0;19;1;1;-532;0.0;-0.00018750572222052677;2.322633381145665;3.870493118076113
54;6.2;22;0;2;-533;-0.00018750572222052677;0.0;2.32094582964568;3.8699306009094516
55;6.3;18;1;0;-532;-0.00018750572222052677;-0.00037501144444105353;2.3228208868678855;3.8703056123538926
56;6.4;18;1;2;-533;0.0;0.0;2.3200083010345773;3.870680623798334
57;6.5;19;1;1;-530;-0.00018750572222052677;-0.00018750572222052677;2.3211333353679007;3.86936808374279
58;6.6;21;1;1;-531;-0.00037501144444105353;-0.00018750572222052677;2.3231958983123264;3.8703056123538926
59;6.7;20;2;2;-532;0.0;-0.00018750572222052677;2.322258369701224;3.8703056123538926
60;6.8;16;1;0;-532;0.0;-0.00018750572222052677;2.323008392590106;3.870118106631672
61;6.9;20;1;2;-533;-0.00018750572222052677;-0.00018750572222052677;2.3218833582567826;3.86936808374279
62;7.1;22;2;0;-534;-0.00018750572222052677;-0.00018750572222052677;2.3218833582567826;3.871430646687216
63;7.2;17;1;1;-532;-0.00018750572222052677;-0.00018750572222052677;2.3228208868678855;3.8703056123538926
64;7.3;19;2;1;-532;0.0;-0.00037501144444105353;2.3218833582567826;3.870680623798334
65;7.4;19;1;0;-532;-0.00018750572222052677;-0.00018750572222052677;2.322633381145665;3.8712431409649954
66;7.5;18;2;2;-531;-0.00018750572222052677;-0.00018750572222052677;2.3224458754234445;3.8712431409649954
67;7.6;19;1;1;-532;-0.00037501144444105353;-0.00018750572222052677;2.323008392590106;3.870493118076113
68;7.7;21;2;0;-532;-0.00018750572222052677;-0.00018750572222052677;2.323945921201209;3.8729306924649802
69;7.9;19;1;0;-532;-0.00018750572222052677;-0.00018750572222052677;2.323383404034547;3.870493118076113
70;8.0;20;2;1;-531;-0.00018750572222052677;-0.00018750572222052677;2.3220708639790035;3.869743095187231
71;8.1;20;2;1;-531;-0.00018750572222052677;-0.00018750572222052677;2.3203833124790187;3.8703056123538926
72;8.2;18;1;2;-532;0.0;-0.00018750572222052677;2.32094582964568;3.8695555894650107
73;8.3;20;2;1;-532;0.0;-0.00018750572222052677;2.3211333353679007;3.8712431409649954
74;8.4;20;0;1;-531;-0.00037501144444105353;-0.00018750572222052677;2.3196332895901364;3.8703056123538926
75;8.5;19;1;1;-531;-0.00018750572222052677;-0.00018750572222052677;2.321320841090121;3.871430646687216
76;8.7;18;1;0;-532;-0.00018750572222052677;-0.00018750572222052677;2.322633381145665;3.8703056123538926
77;8.8;16;1;0;-533;-0.00018750572222052677;-0.00018750572222052677;2.3205708182012392;3.8708681295205545
78;8.9;19;1;1;-532;-0.00018750572222052677;-0.00018750572222052677;2.321320841090121;3.8716181524094364
79;9.0;20;0;1;-531;-0.00018750572222052677;-0.00018750572222052677;2.3215083468123416;3.86936808374279
80;9.1;20;2;2;-532;0.0;-0.00018750572222052677;2.3237584154789883;3.867493026520585
81;9.2;22;1;1;-533;-0.00018750572222052677;-0.00018750572222052677;2.3228208868678855;3.868993072298349
82;9.3;17;2;1;-532;-0.00018750572222052677;-0.00018750572222052677;2.3215083468123416;3.869743095187231
83;9.5;18;2;2;-532;0.0;-0.00018750572222052677;2.323383404034547;3.870493118076113
84;9.6;20;0;1;-532;-0.00018750572222052677;-0.00018750572222052677;2.323008392590106;3.870493118076113
85;9.7;21;1;2;-532;-0.00018750572222052677;0.0;2.321320841090121;3.8716181524094364
86;9.8;20;2;2;-533;-0.00018750572222052677;-0.00037501144444105353;3.8727431867427597;3.868993072298349
87;9.9;17;2;1;-531;-0.00018750572222052677;0.0;2.3220708639790035;3.867868037965026
88;10.0;23;1;1;-557;-0.00018750572222052677;-0.00018750572222052677;2.322633381145665;3.870493118076113
89;10.1;20;1;2;-532;-0.00018750572222052677;-0.00018750572222052677;2.32094582964568;3.869743095187231
90;10.3;20;1;1;-532;-0.00018750572222052677;-0.00018750572222052677;2.3211333353679007;3.8703056123538926
91;10.4;-24;3;0;-531;0.0;-0.00018750572222052677;2.3211333353679007;3.8691805780205697
92;10.5;16;1;2;-533;0.0;-0.00018750572222052677;2.322633381145665;3.8695555894650107
93;10.6;18;2;0;-531;-0.00018750572222052677;-0.00018750572222052677;2.3224458754234445;3.869743095187231
94;10.7;18;1;1;-531;-0.00018750572222052677;-0.00018750572222052677;2.3203833124790187;3.8712431409649954
95;10.8;23;1;1;-532;-0.00018750572222052677;-0.00018750572222052677;2.3200083010345773;3.8688055665761283
96;10.9;19;1;1;-533;0.0;-0.00037501144444105353;2.3196332895901364;3.870118106631672
97;11.1;19;1;1;-532;0.0;-0.00018750572222052677;2.3231958983123264;3.8688055665761283
98;11.2;17;1;1;-531;-0.00018750572222052677;0.0;2.321695852534562;3.868993072298349
99;11.3;20;1;1;-531;0.0;0.0;2.3228208868678855;3.8684305551316873
100;11.4;20;1;1;-532;0.0;-0.00018750572222052677;2.321695852534562;3.8695555894650107
101;11.5;18;2;1;-532;0.0;-0.00018750572222052677;2.321320841090121;3.870118106631672
102;11.6;19;1;1;-533;-0.00018750572222052677;-0.00018750572222052677;2.321320841090121;3.8680555436872464
103;11.7;19;1;1;-531;0.0;-0.00018750572222052677;2.324883449812311;3.8721806695760983
104;11.8;20;1;1;-531;3.8744307382427445;-0.00018750572222052677;2.321320841090121;3.8691805780205697
105;12.0;20;1;1;-531;-0.00018750572222052677;0.0;2.32094582964568;3.8684305551316873
106;12.1;21;2;0;-532;0.0;-0.00018750572222052677;2.3196332895901364;3.868618060853908
107;12.2;17;1;1;-532;-0.00018750572222052677;-0.00037501144444105353;2.3218833582567826;3.8691805780205697
108;12.3;21;1;0;-531;0.0;-0.00018750572222052677;2.3203833124790187;3.8695555894650107
109;12.4;19;2;1;-532;-0.00018750572222052677;-0.00018750572222052677;2.3220708639790035;3.870680623798334
110;12.5;20;0;2;-531;0.0;-0.00018750572222052677;2.32094582964568;3.86936808374279
111;12.6;16;0;2;-530;-0.00037501144444105353;-0.00018750572222052677;2.3218833582567826;3.8691805780205697
112;12.8;18;2;3;-531;-0.00018750572222052677;-0.00018750572222052677;2.3220708639790035;3.8703056123538926
113;12.9;20;1;2;-531;-0.00018750572222052677;-0.00018750572222052677;2.3224458754234445;3.870118106631672
114;13.0;20;2;1;-532;0.0;-0.00037501144444105353;2.3207583239234597;3.8691805780205697
115;13.1;19;-1;1;-532;-0.00018750572222052677;0.0;2.3218833582567826;3.8695555894650107
116;13.2;19;1;0;-532;-0.00018750572222052677;-0.00018750572222052677;2.3215083468123416;3.870118106631672
117;13.3;20;1;1;-533;0.0;0.0;2.322633381145665;3.86936808374279
118;13.4;19;2;0;-532;0.0;0.0;2.3231958983123264;3.8695555894650107
119;13.6;18;0;1;-533;-0.00018750572222052677;-0.00018750572222052677;2.3228208868678855;3.8695555894650107
120;13.7;21;1;1;-531;0.0;-0.00018750572222052677;2.3224458754234445;3.868993072298349
121;13.8;20;1;1;-532;-0.00018750572222052677;-0.00018750572222052677;2.322258369701224;2.3231958983123264
122;13.9;17;1;2;-531;3.871055635242775;-0.00018750572222052677;2.321320841090121;3.868993072298349
123;14.0;22;1;2;-531;-0.00037501144444105353;0.0;2.322633381145665;3.8684305551316873
124;14.1;19;0;2;-531;-0.00018750572222052677;-0.00018750572222052677;2.3203833124790187;3.8708681295205545
125;14.2;18;0;1;-532;-0.00018750572222052677;-0.00018750572222052677;2.3211333353679007;3.8691805780205697
126;14.4;19;2;0;-532;-0.00018750572222052677;-0.00018750572222052677;2.323945921201209;3.8699306009094516
127;14.5;20;1;0;-533;0.0;-0.00037501144444105353;2.3246959440900907;3.8695555894650107
128;14.6;19;1;0;-532;-0.00018750572222052677;-0.00018750572222052677;2.321695852534562;3.870680623798334
129;14.7;17;1;2;-532;-0.00018750572222052677;-0.00018750572222052677;2.3211333353679007;3.8695555894650107
130;14.8;19;2;1;-532;0.0;-0.00037501144444105353;2.321320841090121;3.870493118076113
131;14.9;18;1;2;-531;-0.00037501144444105353;-0.00018750572222052677;2.3220708639790035;3.868993072298349
132;15.0;17;1;1;-532;-0.00018750572222052677;-0.00018750572222052677;2.320195806756798;3.869743095187231
133;15.2;18;0;1;-530;-0.00018750572222052677;-0.00018750572222052677;2.3215083468123416;3.8699306009094516
134;15.3;19;1;1;-532;0.0;-0.00018750572222052677;2.3220708639790035;3.8691805780205697
135;15.4;20;1;1;-532;0.0;-0.00018750572222052677;2.3228208868678855;3.8695555894650107
136;15.5;20;3;1;-530;0.0;-0.00018750572222052677;2.321320841090121;3.8695555894650107
137;15.6;19;1;1;-532;-0.00037501144444105353;-0.00018750572222052677;2.321695852534562;3.8712431409649954
138;15.7;19;1;0;-534;-0.00018750572222052677;-0.00018750572222052677;2.3220708639790035;3.870680623798334
139;15.8;20;2;0;-532;-0.00018750572222052677;0.0;2.3252584612567526;3.872368175298319
140;16.0;16;1;1;-533;-0.00018750572222052677;-0.00018750572222052677;2.3231958983123264;3.8691805780205697
141;16.1;21;2;1;-531;-0.00018750572222052677;-0.00018750572222052677;2.3200083010345773;3.8684305551316873
142;16.2;19;1;0;-531;-0.00018750572222052677;-0.00018750572222052677;2.323008392590106;3.8695555894650107
143;16.3;22;1;0;-534;-0.00018750572222052677;0.0;2.3218833582567826;3.8699306009094516
144;16.4;18;2;1;-532;-0.00018750572222052677;-0.00018750572222052677;2.3215083468123416;3.8703056123538926
145;16.5;20;1;2;-532;-0.00018750572222052677;-0.00018750572222052677;2.3220708639790035;3.8699306009094516
146;16.6;20;1;1;-532;0.0;-0.00018750572222052677;2.3220708639790035;3.8684305551316873
147;16.7;16;1;1;-532;0.0;0.0;2.3218833582567826;3.8699306009094516
148;16.9;22;1;1;-531;-0.00018750572222052677;-0.00018750572222052677;2.3215083468123416;3.8695555894650107
149;17.0;19;1;1;-532;-0.00037501144444105353;0.0;2.322633381145665;3.8708681295205545
150;17.1;19;1;1;-533;-0.00018750572222052677;0.0;2.32094582964568;3.868993072298349
151;17.2;20;2;1;-531;-0.00018750572222052677;-0.00018750572222052677;2.3235709097567674;3.868618060853908
152;17.3;20;2;1;-531;-0.00018750572222052677;0.0;2.3215083468123416;3.870493118076113
153;17.4;18;1;0;-531;0.0;-0.00018750572222052677;2.3215083468123416;3.8708681295205545
154;17.5;20;2;0;-531;-0.00018750572222052677;-0.00018750572222052677;2.3215083468123416;3.8699306009094516
155;17.7;19;1;0;-617;0.0;-0.00018750572222052677;2.322258369701224;3.8695555894650107
156;17.8;20;2;0;-532;-0.00018750572222052677;-0.00018750572222052677;2.321695852534562;3.8721806695760983
157;17.9;19;2;1;23;0.0;0.0;3.872368175298319;3.868993072298349
158;18.0;17;0;2;-531;-0.00018750572222052677;0.0;2.321320841090121;3.868243049409467
159;18.1;21;2;1;-532;-0.00018750572222052677;-0.00037501144444105353;2.3207583239234597;3.8688055665761283
160;18.2;18;1;1;-531;-0.00018750572222052677;-0.00037501144444105353;2.321695852534562;3.868243049409467
161;18.3;17;1;0;-532;-0.00018750572222052677;0.0;2.3224458754234445;3.8684305551316873
162;18.5;20;1;1;-531;-0.00018750572222052677;-0.00018750572222052677;2.321695852534562;3.868243049409467
163;18.6;18;1;0;-531;-0.00018750572222052677;-0.00037501144444105353;2.3218833582567826;3.8695555894650107
164;18.7;16;0;1;-532;0.0;-0.00018750572222052677;2.32094582964568;3.8684305551316873
165;18.8;20;1;1;-532;-0.00018750572222052677;0.0;2.3203833124790187;3.8688055665761283
166;18.9;18;1;1;-532;0.0;-0.00037501144444105353;2.3224458754234445;3.867868037965026
167;19.0;18;1;1;-531;0.0;-0.00018750572222052677;2.3200083010345773;3.8691805780205697
168;19.1;19;0;0;-531;-0.00018750572222052677;-0.00018750572222052677;2.3215083468123416;3.868618060853908
169;19.3;19;0;0;-533;-0.00018750572222052677;-0.00018750572222052677;2.322258369701224;3.8691805780205697
170;19.4;22;2;1;-533;-0.00018750572222052677;-0.00018750572222052677;2.32094582964568;3.869743095187231
171;19.5;20;2;1;-532;-0.00018750572222052677;-0.00037501144444105353;2.3218833582567826;3.86936808374279
172;19.6;19;3;1;-531;0.0;0.0;2.321320841090121;3.86936808374279
173;19.7;20;1;1;-532;-0.00018750572222052677;-0.00018750572222052677;2.3218833582567826;3.86936808374279
174;19.8;19;1;2;-531;-0.00018750572222052677;-0.00018750572222052677;2.3245084383678702;3.8727431867427597
175;19.9;18;2;2;-531;2.326195989867855;0.0;2.321320841090121;3.868243049409467
176;20.1;0;1;1;-532;-0.00018750572222052677;-0.00018750572222052677;2.321695852534562;3.8676805322428054
177;20.2;22;1;1;-532;-0.00018750572222052677;-0.00018750572222052677;2.3211333353679007;3.868993072298349
178;20.3;17;2;1;-531;-0.00018750572222052677;-0.00018750572222052677;2.320195806756798;3.866930509353923
179;20.4;17;1;1;-531;-0.00018750572222052677;-0.00018750572222052677;2.3224458754234445;3.8680555436872464
180;20.5;17;1;3;-532;-0.00018750572222052677;-0.00037501144444105353;2.323383404034547;3.868993072298349
181;20.6;20;0;1;-531;0.0;0.0;2.3215083468123416;3.8699306009094516
182;20.7;20;1;1;-532;-0.00018750572222052677;-0.00018750572222052677;2.3215083468123416;3.8691805780205697
183;20.8;18;1;1;-532;-0.00037501144444105353;0.0;2.3220708639790035;3.8691805780205697
184;21.0;17;2;2;-531;-0.00018750572222052677;0.0;2.321320841090121;3.868993072298349
185;21.1;21;1;2;-533;-0.00018750572222052677;0.0;2.3207583239234597;3.869743095187231
186;21.2;21;0;0;-530;-0.00018750572222052677;-0.00018750572222052677;2.3207583239234597;3.8691805780205697
187;21.3;18;0;1;-531;-0.00018750572222052677;0.0;2.3220708639790035;3.8695555894650107
188;21.4;21;0;1;-532;-0.00018750572222052677;-0.00018750572222052677;2.321695852534562;3.8695555894650107
189;21.5;19;1;2;-533;-0.00018750572222052677;-0.00018750572222052677;2.3207583239234597;3.8688055665761283
190;21.6;19;1;2;-532;-0.00018750572222052677;-0.00018750572222052677;2.323008392590106;3.8688055665761283
191;21.8;21;1;1;-531;-0.00018750572222052677;0.0;2.32094582964568;3.870118106631672
192;21.9;19;2;2;-532;-0.00018750572222052677;0.0;2.323945921201209;3.8729306924649802
193;22.0;20;3;3;-532;2.326571001312296;-0.00018750572222052677;2.322258369701224;3.869743095187231
194;22.1;20;1;1;-531;-0.00018750572222052677;-0.00018750572222052677;2.3224458754234445;3.8688055665761283
195;22.2;19;1;2;-532;-0.00018750572222052677;-0.00018750572222052677;2.3220708639790035;3.8695555894650107
196;22.3;18;2;1;-532;0.0;0.0;2.3218833582567826;3.86936808374279
197;22.4;20;3;0;-532;-0.00018750572222052677;-0.00018750572222052677;2.3211333353679007;3.8676805322428054
198;22.6;20;1;0;-531;0.0;-0.00037501144444105353;2.32094582964568;3.869743095187231
199;22.7;20;1;0;-532;-0.00018750572222052677;-0.00018750572222052677;2.3243209326456498;3.8708681295205545
200;22.8;20;0;1;-531;-0.00037501144444105353;-0.00018750572222052677;2.3196332895901364;3.8667430036317025
201;22.9;17;1;0;-533;-0.00018750572222052677;-0.00018750572222052677;2.3215083468123416;3.86936808374279
202;23.0;21;2;1;-533;-0.00037501144444105353;-0.00018750572222052677;2.320195806756798;3.869743095187231
203;23.1;18;-1;1;-533;-0.00018750572222052677;-0.00018750572222052677;2.3211333353679007;3.868993072298349
204;23.2;20;1;1;-532;-0.00018750572222052677;-0.00018750572222052677;2.3224458754234445;3.8699306009094516
205;23.4;21;1;2;-531;0.0;-0.00037501144444105353;2.322633381145665;3.86936808374279
206;23.5;20;1;2;-532;-0.00018750572222052677;-0.00018750572222052677;2.3205708182012392;3.870118106631672
207;23.6;21;1;2;-531;-0.00018750572222052677;-0.00018750572222052677;2.322258369701224;3.8691805780205697
