;Time;Thrust;Pressure1;Pressure2;Weight;Current;Voltage;Battery12V;Battery24V
0;0.0;18;1;2;-531;-0.00018750572222052677;-0.00018750572222052677;2.318508255256813;3.865617969298379
1;0.1999999999999993;17;2;1;-531;-0.00018750572222052677;-0.00018750572222052677;2.3186957609790335;3.865617969298379
2;0.29999999999999716;22;1;1;-531;-0.00018750572222052677;-0.00037501144444105353;2.3170082094790487;3.8648679464094973
3;0.3999999999999986;19;1;1;-531;-0.00018750572222052677;0.0;2.3192582781456954;3.8658054750206
4;0.5;19;1;1;-531;-0.00018750572222052677;-0.00018750572222052677;2.3186957609790335;3.865617969298379
5;0.5999999999999979;24;1;1;-530;0.0;0.0;2.3183207495345926;3.8671180150761435
6;0.6999999999999993;19;2;0;-531;-0.00037501144444105353;-0.00018750572222052677;2.317758232367931;3.864305429242836
7;0.7999999999999972;18;1;1;-532;-0.00018750572222052677;-0.00018750572222052677;2.320195806756798;3.865617969298379
8;1.0;20;0;1;-533;-0.00018750572222052677;-0.00018750572222052677;2.3170082094790487;3.865617969298379
9;1.0999999999999979;20;1;1;-531;-0.00018750572222052677;-0.00018750572222052677;2.319070772423475;3.8650554521317178
10;1.1999999999999993;19;1;0;-532;-0.00018750572222052677;0.0;2.317758232367931;3.8644929349650563
11;1.2999999999999972;21;1;1;-532;-0.00018750572222052677;-0.00018750572222052677;2.3164456923123873;3.864680440687277
12;1.3999999999999986;18;1;1;-532;0.0;0.0;2.317758232367931;3.8641179235206153
13;1.5;27;1;1;-532;-0.00018750572222052677;0.0;2.3179457380901516;3.8641179235206153
14;1.5999999999999979;18;1;1;-532;0.0;-0.00018750572222052677;2.3203833124790187;3.8691805780205697
15;1.7999999999999972;20;1;2;-531;2.3211333353679007;0.0;2.3186957609790335;3.8633679006317334
16;1.8999999999999986;2;1;1;-532;0.0;-0.00018750572222052677;2.3183207495345926;3.8644929349650563
17;2.0;19;1;1;-530;-0.00018750572222052677;0.0;2.3171957152012697;3.8641179235206153
18;2.099999999999998;19;0;1;-531;0.0;-0.00037501144444105353;2.315695669423506;3.8648679464094973
19;2.1999999999999993;22;1;1;-531;-0.00018750572222052677;0.0;2.3188832667012544;3.8650554521317178
20;2.299999999999997;18;1;2;-531;-0.00018750572222052677;-0.00018750572222052677;2.3175707266457106;3.8650554521317178
21;2.3999999999999986;18;0;0;-531;-0.00018750572222052677;-0.00037501144444105353;2.3183207495345926;3.8629928891872924
22;2.599999999999998;20;2;0;-531;-0.00018750572222052677;-0.00018750572222052677;2.3192582781456954;3.8658054750206
23;2.6999999999999993;19;1;1;-532;-0.00018750572222052677;-0.00018750572222052677;2.3168207037568282;3.8648679464094973
24;2.799999999999997;19;2;1;-531;-0.00037501144444105353;-0.00018750572222052677;2.3168207037568282;3.8641179235206153
25;2.8999999999999986;20;0;1;-531;-0.00018750572222052677;-0.00018750572222052677;2.3179457380901516;3.864305429242836
26;3.0;19;0;1;-532;-0.00018750572222052677;-0.00018750572222052677;2.3175707266457106;3.8650554521317178
27;3.099999999999998;18;2;2;-531;0.0;-0.00018750572222052677;2.3153206579790644;3.8620553605761896
28;3.1999999999999993;20;1;2;-529;0.0;0.0;2.3188832667012544;3.864305429242836
29;3.299999999999997;16;1;1;-532;0.0;-0.00018750572222052677;2.3166331980346078;3.86224286629841
30;3.5;17;1;1;-532;-0.00018750572222052677;-0.00018750572222052677;2.3164456923123873;3.864680440687277
31;3.599999999999998;21;1;1;-530;-0.00018750572222052677;-0.00018750572222052677;2.3186957609790335;3.8654304635761587
32;3.6999999999999993;19;1;1;-531;-0.00018750572222052677;-0.00018750572222052677;2.316258186590167;3.867868037965026
33;3.799999999999997;21;0;1;-532;0.0;0.0;2.32094582964568;3.8673055207983644
34;3.8999999999999986;17;19;1;-531;3.8680555436872464;-0.00018750572222052677;2.3166331980346078;3.864680440687277
35;4.0;22;1;1;-531;-0.00018750572222052677;-0.00018750572222052677;2.3179457380901516;3.8652429578539382
36;4.100000000000001;20;2;1;-531;-0.00018750572222052677;-0.00018750572222052677;2.318133243812372;3.8650554521317178
37;4.299999999999997;22;2;1;-532;-0.00018750572222052677;-0.00018750572222052677;2.315695669423506;3.8644929349650563
38;4.399999999999999;23;1;3;-531;-0.00018750572222052677;-0.00018750572222052677;2.318133243812372;3.863555406353954
39;4.5;20;1;1;-531;-0.00018750572222052677;-0.00018750572222052677;2.3192582781456954;3.865617969298379
40;4.600000000000001;16;1;2;-532;-0.00018750572222052677;-0.00018750572222052677;2.318133243812372;3.8650554521317178
41;4.699999999999996;18;0;0;-533;-0.00018750572222052677;-0.00018750572222052677;2.318508255256813;3.8659929807428206
42;4.799999999999997;20;1;1;-531;-0.00037501144444105353;-0.00018750572222052677;2.31738322092349;3.8654304635761587
43;4.899999999999999;19;1;1;-532;0.0;0.0;2.3196332895901364;3.862805383465072
44;5.100000000000001;19;1;2;-532;-0.00018750572222052677;-0.00018750572222052677;2.318508255256813;3.8652429578539382
45;5.199999999999996;21;2;2;-531;0.0;-0.00018750572222052677;2.3179457380901516;3.866180486465041
46;5.299999999999997;19;2;2;-532;-0.00018750572222052677;-0.00018750572222052677;2.3179457380901516;3.8639304177983944
47;5.399999999999999;17;1;0;-531;-0.00018750572222052677;-0.00018750572222052677;2.3171957152012697;3.8650554521317178
48;5.5;972;1;1;-531;-0.00018750572222052677;-0.00018750572222052677;2.3183207495345926;3.8644929349650563
49;5.5;114;1;1;-531;-0.00018750572222052677;-0.00018750572222052677;2.317758232367931;3.8641179235206153
50;5.600000000000001;16;1;1;-531;0.0;-0.00018750572222052677;2.318508255256813;3.866180486465041
51;5.799999999999997;20;0;1;-531;0.0;0.0;2.318133243812372;3.8644929349650563
52;5.899999999999999;18;2;2;-532;-0.00018750572222052677;-0.00018750572222052677;2.319445783867916;2.323945921201209
53;6.0;20;1;17;-530;2.3215083468123416;0.0;2.3171957152012697;3.8644929349650563
54;6.100000000000001;1;0;3;-531;-0.00018750572222052677;-0.00018750572222052677;2.3166331980346078;3.8644929349650563
55;6.199999999999996;20;0;1;-531;-0.00018750572222052677;-0.00018750572222052677;2.3179457380901516;3.8667430036317025
56;6.299999999999997;21;1;2;-531;-0.00018750572222052677;-0.00018750572222052677;2.318508255256813;3.8648679464094973
57;6.399999999999999;19;1;0;-532;0.00018750572222052677;-0.00018750572222052677;2.3166331980346078;3.865617969298379
58;6.600000000000001;21;0;1;-532;-0.00018750572222052677;-0.00018750572222052677;2.3183207495345926;3.866555497909482
59;6.699999999999996;19;1;2;-532;-0.00018750572222052677;-0.00018750572222052677;2.3186957609790335;3.8633679006317334
60;6.799999999999997;18;3;2;-531;-0.00018750572222052677;-0.00037501144444105353;2.3186957609790335;3.8648679464094973
61;6.899999999999999;20;1;1;-531;-0.00037501144444105353;-0.00037501144444105353;2.319445783867916;3.8644929349650563
62;7.0;17;1;1;-532;-0.00018750572222052677;-0.00037501144444105353;2.315695669423506;3.866180486465041
63;7.100000000000001;20;0;1;-532;0.0;-0.00018750572222052677;2.318508255256813;3.864680440687277
64;7.199999999999996;21;1;2;-531;-0.00018750572222052677;-0.00018750572222052677;2.3196332895901364;3.8671180150761435
65;7.399999999999999;22;1;0;-532;-0.00018750572222052677;-0.00018750572222052677;2.3175707266457106;3.864680440687277
66;7.5;20;2;1;-531;-0.00018750572222052677;-0.00018750572222052677;2.3164456923123873;3.864680440687277
67;7.600000000000001;20;2;1;-533;-0.00018750572222052677;-0.00018750572222052677;2.320195806756798;3.863742912076174
68;7.699999999999996;19;2;1;-532;-0.00018750572222052677;-0.00018750572222052677;2.31738322092349;3.863742912076174
69;7.799999999999997;22;1;1;-531;-0.00018750572222052677;-0.00018750572222052677;2.318508255256813;3.863742912076174
70;7.899999999999999;18;1;2;-531;-0.00018750572222052677;-0.00018750572222052677;2.318133243812372;3.8650554521317178
71;8.0;19;2;1;-531;-0.00018750572222052677;0.0;2.3183207495345926;3.8673055207983644
72;8.100000000000001;20;1;2;-531;-0.00018750572222052677;0.0;2.318508255256813;3.8663679921872616
73;8.299999999999997;19;1;1;-532;-0.00018750572222052677;0.0;2.3220708639790035;3.867868037965026
74;8.399999999999999;18;1;17;-531;2.321695852534562;-0.00018750572222052677;2.3170082094790487;3.865617969298379
75;8.5;0;1;2;-532;0.0;-0.00018750572222052677;2.3175707266457106;3.8641179235206153
76;8.600000000000001;19;1;1;-530;0.0;-0.00018750572222052677;2.3188832667012544;3.8650554521317178
77;8.699999999999996;16;1;1;-530;-0.00018750572222052677;-0.00018750572222052677;2.317758232367931;3.864305429242836
78;8.799999999999997;19;1;2;-531;-0.00018750572222052677;-0.00037501144444105353;2.3179457380901516;3.8648679464094973
79;8.899999999999999;17;1;1;-531;-0.00018750572222052677;-0.00018750572222052677;2.3186957609790335;3.8652429578539382
80;9.100000000000001;21;0;2;-531;-0.00037501144444105353;-0.00018750572222052677;2.3160706808679463;3.8624303720206306
81;9.199999999999996;20;2;2;-532;0.0;-0.00018750572222052677;2.318508255256813;3.8650554521317178
82;9.299999999999997;18;2;1;-531;-0.00018750572222052677;-0.00018750572222052677;2.315883175145726;3.863742912076174
83;9.399999999999999;20;1;1;-530;0.0;-0.00018750572222052677;2.3171957152012697;3.8654304635761587
84;9.5;12;1;1;-532;-0.00018750572222052677;-0.00018750572222052677;2.3179457380901516;3.8658054750206
85;9.600000000000001;20;1;2;-531;-0.00018750572222052677;0.0;2.3179457380901516;3.8648679464094973
86;9.699999999999996;21;1;3;-531;-0.00018750572222052677;-0.00018750572222052677;2.3179457380901516;3.8652429578539382
87;9.899999999999999;19;1;2;-531;0.0;-0.00018750572222052677;2.316258186590167;3.864680440687277
88;10.0;17;2;0;-531;0.0;-0.00018750572222052677;2.31738322092349;3.8650554521317178
89;10.100000000000001;20;1;1;-531;0.0;-0.00037501144444105353;2.3170082094790487;3.8639304177983944
90;10.199999999999996;18;1;0;-531;-0.00018750572222052677;-0.00018750572222052677;2.3186957609790335;3.864305429242836
91;10.299999999999997;19;0;0;-532;-0.00018750572222052677;-0.00018750572222052677;2.3166331980346078;3.864305429242836
92;10.399999999999999;21;2;1;-531;0.0;-0.00018750572222052677;2.321320841090121;3.8641179235206153
93;10.5;20;2;2;-532;-0.00018750572222052677;-0.00018750572222052677;2.3179457380901516;3.8671180150761435
94;10.699999999999996;20;2;1;-533;0.0;-0.00018750572222052677;2.3211333353679007;3.868243049409467
95;10.799999999999997;17;22;0;-531;3.867868037965026;-0.00018750572222052677;2.3164456923123873;3.8648679464094973
96;10.899999999999999;17;2;2;-532;0.0;0.0;2.315695669423506;3.865617969298379
97;11.0;19;2;0;-531;-0.00018750572222052677;-0.00018750572222052677;2.319070772423475;3.864305429242836
98;11.100000000000001;23;2;1;-532;-0.00018750572222052677;-0.00018750572222052677;2.31738322092349;3.8626178777428515
99;11.199999999999996;19;1;0;-531;-0.00018750572222052677;-0.00018750572222052677;2.317758232367931;3.8626178777428515
100;11.299999999999997;17;2;1;-532;-0.00018750572222052677;-0.00018750572222052677;2.3170082094790487;3.862805383465072
101;11.5;21;1;2;-533;0.0;-0.00018750572222052677;2.318133243812372;3.863555406353954
102;11.600000000000001;19;1;1;-531;-0.00018750572222052677;-0.00018750572222052677;2.3170082094790487;3.861117831965087
103;11.699999999999996;20;1;1;-531;-0.00018750572222052677;0.0;2.3168207037568282;3.861867854853969
104;11.799999999999997;16;2;0;-531;-0.00018750572222052677;-0.00018750572222052677;2.318508255256813;3.8644929349650563
105;11.899999999999999;19;1;1;-532;-0.00018750572222052677;-0.00018750572222052677;2.3183207495345926;3.8644929349650563
106;12.0;17;1;1;-532;-0.00018750572222052677;-0.00018750572222052677;2.3168207037568282;3.8629928891872924
107;12.100000000000001;20;1;1;-532;-0.00018750572222052677;-0.00037501144444105353;2.3186957609790335;3.863742912076174
108;12.299999999999997;19;2;0;-533;0.0;0.0;2.315695669423506;3.8648679464094973
109;12.399999999999999;19;0;2;-530;-0.00018750572222052677;-0.00018750572222052677;2.3192582781456954;3.864305429242836
110;12.5;145;0;0;-532;0.0;-0.00037501144444105353;2.318508255256813;3.8633679006317334
111;12.600000000000001;19;1;2;-532;-0.00037501144444105353;0.0;2.3171957152012697;3.864680440687277
112;12.699999999999996;84;1;1;-532;-0.00018750572222052677;-0.00018750572222052677;2.3175707266457106;3.864305429242836
113;12.799999999999997;114;1;2;-532;-0.00018750572222052677;0.0;2.319445783867916;3.8650554521317178
114;12.899999999999999;20;0;1;-532;-0.00018750572222052677;-0.00018750572222052677;2.3211333353679007;2.3196332895901364
115;13.100000000000001;72;1;2;0;0.0;-0.00018750572222052677;2.318133243812372;3.863180394909513
116;13.199999999999996;1;1;2;-532;-0.00018750572222052677;-0.00018750572222052677;2.319070772423475;3.8659929807428206
117;13.299999999999997;177;2;1;-531;-0.00018750572222052677;0.0;2.3175707266457106;3.8644929349650563
118;13.399999999999999;157;2;1;-531;0.0;0.0;2.319070772423475;3.864680440687277
119;13.5;55;1;1;-531;-0.00037501144444105353;-0.00018750572222052677;2.3171957152012697;3.864305429242836
120;13.600000000000001;63;1;1;-531;-0.00018750572222052677;-0.00018750572222052677;2.3164456923123873;3.8641179235206153
121;13.699999999999996;83;1;2;-531;-0.00018750572222052677;-0.00018750572222052677;2.319445783867916;3.8652429578539382
122;13.899999999999999;68;2;0;-532;-0.00018750572222052677;-0.00018750572222052677;2.318133243812372;3.864305429242836
123;14.0;19;1;1;-531;-0.00018750572222052677;-0.00018750572222052677;2.319070772423475;3.864305429242836
124;14.100000000000001;23;0;2;-532;0.0;0.0;2.318508255256813;3.8658054750206
125;14.199999999999996;47;1;1;-530;-0.00018750572222052677;0.0;2.319070772423475;3.864680440687277
126;14.299999999999997;46;2;1;-533;-0.00018750572222052677;-0.00018750572222052677;2.3179457380901516;3.8639304177983944
127;14.399999999999999;17;1;2;-532;-0.00018750572222052677;-0.00018750572222052677;2.3188832667012544;3.864680440687277
128;14.5;18;1;0;-531;-0.00018750572222052677;-0.00037501144444105353;2.3171957152012697;3.865617969298379
129;14.699999999999996;18;2;1;-530;0.0;-0.00018750572222052677;2.3183207495345926;3.8650554521317178
130;14.799999999999997;20;1;1;-532;-0.00018750572222052677;-0.00018750572222052677;2.318508255256813;3.8650554521317178
131;14.899999999999999;18;1;1;-530;-0.00018750572222052677;-0.00018750572222052677;2.3170082094790487;3.8650554521317178
132;15.0;20;0;1;-532;-0.00018750572222052677;-0.00018750572222052677;2.3164456923123873;3.8650554521317178
133;15.100000000000001;19;1;0;-532;-0.00018750572222052677;-0.00018750572222052677;2.318508255256813;3.864680440687277
134;15.199999999999996;18;2;1;-532;-0.00018750572222052677;-0.00018750572222052677;2.318133243812372;3.866555497909482
135;15.299999999999997;20;0;1;-533;-0.00018750572222052677;0.0;2.3205708182012392;2.321695852534562
136;15.5;18;2;18;-532;0.0;3.8688055665761283;2.318133243812372;3.8641179235206153
137;15.600000000000001;19;0;2;-531;-0.00018750572222052677;-0.00018750572222052677;2.3175707266457106;3.8654304635761587
138;15.699999999999996;17;2;1;-532;0.0;-0.00018750572222052677;2.3175707266457106;3.8644929349650563
139;15.799999999999997;16;1;1;-529;-0.00018750572222052677;-0.00018750572222052677;2.3168207037568282;3.8644929349650563
140;15.899999999999999;19;1;1;-533;-0.00018750572222052677;-0.00018750572222052677;2.319070772423475;3.8650554521317178
141;16.0;24;2;1;-532;-0.00018750572222052677;-0.00018750572222052677;2.318133243812372;3.8650554521317178
142;16.1;90;1;1;-532;0.0;-0.00018750572222052677;2.3183207495345926;3.8654304635761587
143;16.199999999999996;214;0;1;-532;-0.00018750572222052677;-0.00018750572222052677;2.31738322092349;3.8641179235206153
144;16.4;244;2;1;-531;-0.00018750572222052677;-0.00018750572222052677;2.3183207495345926;3.8652429578539382
145;16.5;243;0;1;-532;0.0;-0.00018750572222052677;2.319070772423475;3.8644929349650563
146;16.6;289;1;3;-531;-0.00018750572222052677;-0.00018750572222052677;2.318508255256813;3.8633679006317334
147;16.699999999999996;228;1;2;-532;-0.00018750572222052677;-0.00018750572222052677;2.317758232367931;3.864680440687277
148;16.799999999999997;213;1;1;-531;0.0;-0.00018750572222052677;2.3192582781456954;3.8644929349650563
149;16.9;222;2;2;-531;-0.00018750572222052677;-0.00037501144444105353;2.317758232367931;3.863742912076174
150;17.0;169;1;1;-532;-0.00018750572222052677;-0.00018750572222052677;2.318133243812372;3.863742912076174
151;17.199999999999996;155;1;2;-532;-0.00037501144444105353;-0.00018750572222052677;2.3179457380901516;3.8652429578539382
152;17.299999999999997;169;1;0;-531;0.0;-0.00018750572222052677;2.3168207037568282;3.864305429242836
153;17.4;150;1;2;-532;-0.00018750572222052677;-0.00018750572222052677;2.31738322092349;3.8639304177983944
154;17.5;133;1;0;-533;0.0;-0.00018750572222052677;2.3188832667012544;3.863555406353954
155;17.6;130;1;1;-530;-0.00037501144444105353;-0.00037501144444105353;2.315883175145726;3.8652429578539382
156;17.699999999999996;133;1;1;-532;-0.00018750572222052677;-0.00018750572222052677;2.320195806756798;3.8680555436872464
157;17.799999999999997;151;0;153;-533;2.3205708182012392;-0.00018750572222052677;2.316258186590167;3.863742912076174
158;18.0;0;1;0;-532;-0.00018750572222052677;-0.00018750572222052677;2.3175707266457106;3.8652429578539382
159;18.1;127;2;1;-532;-0.00018750572222052677;-0.00018750572222052677;2.3188832667012544;3.864680440687277
160;18.199999999999996;119;1;1;-531;0.0;-0.00018750572222052677;2.3168207037568282;3.8629928891872924
161;18.299999999999997;119;2;1;-532;-0.00018750572222052677;0.0;2.3175707266457106;3.8648679464094973
162;18.4;112;1;1;-534;-0.00018750572222052677;0.0;2.3175707266457106;3.8658054750206
163;18.5;87;2;1;-530;-0.00037501144444105353;-0.00018750572222052677;2.3166331980346078;3.8641179235206153
164;18.6;71;1;1;-531;-0.00018750572222052677;-0.00018750572222052677;2.3175707266457106;3.8639304177983944
165;18.799999999999997;113;1;2;-532;-0.00018750572222052677;-0.00037501144444105353;2.318508255256813;3.8652429578539382
166;18.9;188;2;1;-531;-0.00018750572222052677;0.0;2.318508255256813;3.8652429578539382
167;19.0;180;1;1;-531;-0.00018750572222052677;-0.00018750572222052677;2.318508255256813;3.863555406353954
168;19.1;155;1;1;-531;-0.00018750572222052677;0.0;2.3171957152012697;3.8633679006317334
169;19.199999999999996;132;2;0;-531;-0.00018750572222052677;0.0;2.3183207495345926;3.8644929349650563
170;19.299999999999997;111;1;1;-532;-0.00018750572222052677;-0.00018750572222052677;2.3171957152012697;3.864680440687277
171;19.4;98;1;1;-531;-0.00018750572222052677;-0.00018750572222052677;2.317758232367931;3.8648679464094973
172;19.5;103;2;1;-533;-0.00018750572222052677;-0.00018750572222052677;2.318508255256813;3.8648679464094973
173;19.699999999999996;120;1;1;-530;0.0;-0.00018750572222052677;2.3186957609790335;3.8648679464094973
174;19.799999999999997;118;0;1;-532;0.0;-0.00037501144444105353;2.318133243812372;3.8639304177983944
175;19.9;123;1;1;-531;0.0;-0.00018750572222052677;2.3200083010345773;3.865617969298379
176;20.0;128;1;2;-531;0.0;-0.00018750572222052677;2.3166331980346078;3.866930509353923
177;20.1;132;2;1;-532;-0.00018750572222052677;-0.00018750572222052677;2.32094582964568;3.868993072298349
178;20.199999999999996;126;127;2;-531;3.8688055665761283;-0.00018750572222052677;2.3166331980346078;3.8652429578539382
179;20.4;117;2;1;-532;-0.00018750572222052677;-0.00018750572222052677;2.3170082094790487;3.8654304635761587
180;20.5;110;1;2;-531;0.0;-0.00018750572222052677;2.3171957152012697;3.864680440687277
181;20.6;115;1;0;-532;-0.00018750572222052677;-0.00018750572222052677;2.3196332895901364;3.8650554521317178
182;20.699999999999996;106;2;0;-532;-0.00018750572222052677;-0.00018750572222052677;2.319070772423475;3.865617969298379
183;20.799999999999997;87;2;0;-531;0.0;-0.00037501144444105353;2.318508255256813;3.863742912076174
184;20.9;100;2;0;-532;0.0;0.0;2.3175707266457106;3.8633679006317334
185;21.0;107;2;1;-531;0.0;-0.00018750572222052677;2.3168207037568282;3.8659929807428206
186;21.1;116;0;1;-532;-0.00018750572222052677;0.0;2.31738322092349;3.864680440687277
