;Time;Thrust;Pressure1;Pressure2;Weight;Current;Voltage;Battery12V;Battery24V
0;0.0;1;1;17;-542;-0.00018750572222052677;-0.00018750572222052677;2.1793790093691823;3.6867375102999973
1;0.010000000000005116;77;1;20;-542;-0.00018750572222052677;-0.00018750572222052677;2.1782539750358594;3.6873000274666587
2;0.01999999999999602;77;2;20;-543;-0.00018750572222052677;-0.00018750572222052677;2.177878963591418;3.686550004577777
3;0.03999999999999204;75;1;20;-544;0.0;-0.00018750572222052677;2.1776914578691975;3.686550004577777
4;0.04999999999999716;74;1;21;-542;-0.00018750572222052677;-0.00018750572222052677;2.17844148075808;3.6873000274666587
5;0.060000000000002274;77;2;20;-541;0.0;-0.00018750572222052677;2.1793790093691823;3.6871125217444383
6;0.0799999999999983;74;1;20;-543;0.0;-0.00018750572222052677;2.1782539750358594;3.686550004577777
7;0.09000000000000341;72;0;21;-542;-0.00018750572222052677;0.0;2.1795665150914028;3.688987578966643
8;0.10999999999999943;1;1;18;-543;-0.00018750572222052677;0.0;2.177503952146977;3.6871125217444383
9;0.12000000000000455;88;1;20;-543;0.0;0.0;2.1780664693136385;3.686925016022218
10;0.12999999999999545;93;1;20;-543;0.0;-0.00018750572222052677;2.1782539750358594;3.6861749931333354
11;0.14999999999999147;93;2;20;-543;-0.00018750572222052677;-0.00037501144444105353;2.17844148075808;3.6871125217444383
12;0.1599999999999966;84;0;20;-542;0.0;0.0;2.1780664693136385;3.686925016022218
13;0.1700000000000017;82;1;20;-541;-0.00018750572222052677;0.0;2.177878963591418;3.6863624988555563
14;0.18999999999999773;76;2;21;-542;-0.00018750572222052677;0.0;2.17844148075808;3.685987487411115
15;0.20000000000000284;74;1;20;-542;-0.00018750572222052677;-0.00018750572222052677;2.181066560869167;3.6891750846888636
16;0.20999999999999375;79;1;19;-543;-0.00018750572222052677;-0.00018750572222052677;2.178816492202521;3.686550004577777
17;0.23000000000000398;86;0;20;-542;-0.00018750572222052677;0.0;2.178816492202521;3.686550004577777
18;0.23999999999999488;91;2;21;-541;0.0;-0.00018750572222052677;2.1790039979247413;3.6871125217444383
19;0.2600000000000051;88;1;21;-542;-0.00018750572222052677;-0.00018750572222052677;2.17844148075808;3.686550004577777
20;0.269999999999996;84;3;20;-542;-0.00018750572222052677;0.0;2.177503952146977;3.6873000274666587
21;0.28000000000000114;80;1;19;-541;-0.00018750572222052677;-0.00018750572222052677;2.1776914578691975;3.6854249702444535
22;0.29999999999999716;67;1;17;-543;-0.00018750572222052677;-0.00018750572222052677;2.178816492202521;3.685237464522233
23;0.3199999999999932;59;2;18;-541;-0.00018750572222052677;-0.00018750572222052677;3.688612567522202;3.686550004577777
24;0.3299999999999983;64;1;18;-543;0.0;0.0;2.177128940702536;3.685237464522233
25;0.3400000000000034;73;0;18;-542;-0.00018750572222052677;-0.00018750572222052677;2.1790039979247413;3.6861749931333354
26;0.35999999999999943;76;1;21;-541;-0.00018750572222052677;-0.00018750572222052677;2.178816492202521;3.6863624988555563
27;0.37000000000000455;81;1;21;-542;-0.00018750572222052677;-0.00037501144444105353;2.17844148075808;3.6871125217444383
28;0.39000000000000057;81;2;21;-542;-0.00018750572222052677;-0.00018750572222052677;2.1776914578691975;3.6861749931333354
29;0.3999999999999915;78;1;21;-542;0.0;-0.00018750572222052677;2.17844148075808;3.686550004577777
30;0.4099999999999966;75;2;21;-543;-0.00018750572222052677;-0.00018750572222052677;2.17844148075808;3.6857999816888944
31;0.4299999999999926;76;1;21;-541;3.6888000732444226;-0.00018750572222052677;2.1795665150914028;3.686550004577777
32;0.4399999999999977;84;1;20;-543;-0.00018750572222052677;-0.00018750572222052677;2.1780664693136385;3.6863624988555563
33;0.45000000000000284;87;0;19;-542;-0.00018750572222052677;-0.00018750572222052677;2.1780664693136385;3.6863624988555563
34;0.46999999999999886;89;2;21;-543;-0.00018750572222052677;-0.00018750572222052677;2.17844148075808;3.6861749931333354
35;0.480000000000004;86;2;21;-542;-0.00018750572222052677;0.0;2.1780664693136385;3.685987487411115
36;0.5;77;0;20;-541;-0.00018750572222052677;0.0;2.1786289864803003;3.686925016022218
37;0.5100000000000051;72;2;21;-542;-0.00018750572222052677;-0.00018750572222052677;2.1786289864803003;3.6861749931333354
38;0.519999999999996;63;1;19;-542;-0.00018750572222052677;-0.00018750572222052677;2.177503952146977;3.686550004577777
39;0.539999999999992;61;-1;19;-543;-0.00018750572222052677;-0.00018750572222052677;2.178816492202521;3.6861749931333354
40;0.5499999999999972;65;2;20;-543;0.0;-0.00037501144444105353;2.1776914578691975;3.686925016022218
41;0.5600000000000023;67;1;19;-541;-0.00018750572222052677;-0.00018750572222052677;2.1776914578691975;3.686550004577777
42;0.5799999999999983;71;1;21;-541;-0.00018750572222052677;-0.00018750572222052677;2.177878963591418;3.6857999816888944
43;0.5900000000000034;70;1;20;-543;0.0;-0.00018750572222052677;2.176753929258095;3.6867375102999973
44;0.6099999999999994;68;1;20;-543;0.0;-0.00018750572222052677;2.1776914578691975;3.6867375102999973
45;0.6200000000000045;58;2;20;-544;0.0;-0.00018750572222052677;2.1782539750358594;3.6857999816888944
46;0.6299999999999955;55;2;21;-542;-0.00018750572222052677;-0.00018750572222052677;2.1790039979247413;3.6874875331888792
47;0.6499999999999915;40;0;19;-542;-0.00018750572222052677;-0.00018750572222052677;2.1782539750358594;3.6854249702444535
48;0.6599999999999966;49;2;22;-543;-0.00018750572222052677;-0.00037501144444105353;2.1786289864803003;3.6863624988555563
49;0.6700000000000017;55;1;20;-542;-0.00018750572222052677;-0.00018750572222052677;2.1786289864803003;3.686550004577777
50;0.6899999999999977;60;1;22;-542;0.0;0.0;2.17844148075808;3.685612475966674
51;0.7000000000000028;62;2;20;-541;0.0;-0.00018750572222052677;2.1780664693136385;3.6867375102999973
52;0.7199999999999989;56;2;21;-544;-0.00018750572222052677;0.0;2.177503952146977;3.6861749931333354
53;0.730000000000004;50;2;22;-542;0.0;0.0;2.1790039979247413;3.6867375102999973
54;0.7399999999999949;48;2;21;-542;-0.00018750572222052677;-0.00018750572222052677;2.1776914578691975;3.6871125217444383
55;0.7600000000000051;47;1;19;-543;-0.00018750572222052677;-0.00018750572222052677;2.1782539750358594;3.686550004577777
56;0.769999999999996;51;1;20;-542;0.0;0.0;2.1776914578691975;3.686925016022218
57;0.7800000000000011;51;2;21;-543;-0.00018750572222052677;-0.00018750572222052677;2.179191503646962;3.6861749931333354
58;0.7999999999999972;54;1;20;-541;-0.00018750572222052677;-0.00018750572222052677;2.179191503646962;3.6861749931333354
59;0.8100000000000023;57;1;20;-542;-0.00018750572222052677;0.0;2.1780664693136385;3.6861749931333354
60;0.8199999999999932;61;2;20;-542;-0.00018750572222052677;-0.00018750572222052677;2.177128940702536;3.6873000274666587
61;0.8400000000000034;58;2;21;-541;-0.00018750572222052677;-0.00037501144444105353;2.1782539750358594;3.6867375102999973
62;0.8499999999999943;50;2;20;-543;0.0;-0.00018750572222052677;2.178816492202521;3.686550004577777
63;0.8599999999999994;48;0;19;-543;-0.00018750572222052677;0.0;2.179191503646962;3.6861749931333354
64;0.8799999999999955;52;1;19;-543;-0.00018750572222052677;-0.00018750572222052677;2.177878963591418;3.685612475966674
65;0.8900000000000006;57;1;19;-542;-0.00018750572222052677;-0.00018750572222052677;2.177878963591418;3.686550004577777
66;0.9099999999999966;55;1;20;-543;-0.00018750572222052677;-0.00018750572222052677;2.17844148075808;3.685987487411115
67;0.9200000000000017;64;1;21;-542;-0.00018750572222052677;-0.00018750572222052677;2.1790039979247413;3.6861749931333354
68;0.9299999999999926;67;2;20;-542;-0.00018750572222052677;-0.00018750572222052677;2.1786289864803003;3.686925016022218
69;0.9500000000000028;66;1;19;-541;0.0;-0.00018750572222052677;2.1776914578691975;3.686925016022218
70;0.9599999999999937;60;2;21;-543;0.0;-0.00018750572222052677;2.1786289864803003;3.685987487411115
71;0.9699999999999989;59;1;19;-543;-0.00018750572222052677;-0.00018750572222052677;2.1776914578691975;3.6861749931333354
72;0.9899999999999949;61;3;21;-542;-0.00018750572222052677;-0.00018750572222052677;2.1786289864803003;3.6861749931333354
73;1.0;65;2;20;-544;0.0;-0.00018750572222052677;2.1776914578691975;3.686550004577777
74;1.0100000000000051;78;1;20;-543;-0.00018750572222052677;-0.00018750572222052677;2.177503952146977;3.6861749931333354
75;1.0300000000000011;79;1;21;-542;0.00018750572222052677;-0.00037501144444105353;2.1786289864803003;3.685987487411115
76;1.039999999999992;76;1;20;-542;-0.00018750572222052677;-0.00018750572222052677;2.178816492202521;3.6867375102999973
77;1.0499999999999972;79;2;20;-542;-0.00018750572222052677;-0.00018750572222052677;2.17844148075808;3.6861749931333354
78;1.0699999999999932;75;0;20;-542;-0.00018750572222052677;0.0;2.177878963591418;3.685237464522233
79;1.0799999999999983;65;3;18;-543;-0.00018750572222052677;-0.00018750572222052677;2.177878963591418;3.6863624988555563
80;1.0999999999999943;65;2;22;-542;-0.00018750572222052677;-0.00018750572222052677;2.177128940702536;3.686550004577777
81;1.1099999999999994;67;0;21;-543;-0.00018750572222052677;-0.00018750572222052677;2.1786289864803003;3.6867375102999973
82;1.1200000000000045;67;1;20;-541;-0.00018750572222052677;-0.00018750572222052677;2.1786289864803003;3.685612475966674
83;1.1400000000000006;75;1;20;-543;-0.00018750572222052677;0.0;2.17844148075808;3.6857999816888944
84;1.1499999999999915;71;1;21;-542;-0.00018750572222052677;-0.00018750572222052677;2.1790039979247413;3.686925016022218
85;1.1599999999999966;66;2;21;-543;-0.00018750572222052677;-0.00018750572222052677;2.177878963591418;3.6867375102999973
86;1.1799999999999926;56;1;21;-542;-0.00018750572222052677;-0.00018750572222052677;2.178816492202521;3.6867375102999973
87;1.1899999999999977;49;0;20;-541;-0.00018750572222052677;-0.00018750572222052677;2.17844148075808;3.6863624988555563
88;1.2099999999999937;49;1;20;-542;-0.00018750572222052677;0.0;2.1790039979247413;3.6873000274666587
89;1.2199999999999989;52;2;21;-542;-0.00018750572222052677;-0.00018750572222052677;2.1776914578691975;3.686925016022218
90;1.230000000000004;60;1;21;-544;-0.00018750572222052677;0.0;2.177878963591418;3.686550004577777
91;1.25;60;2;22;-543;-0.00018750572222052677;-0.00018750572222052677;2.177878963591418;3.6867375102999973
92;1.2600000000000051;56;1;20;-544;-0.00018750572222052677;-0.00018750572222052677;2.17844148075808;3.686550004577777
93;1.269999999999996;56;1;21;-542;0.0;-0.00018750572222052677;2.177128940702536;3.6863624988555563
94;1.289999999999992;52;1;22;-541;0.0;-0.00018750572222052677;2.1786289864803003;3.6861749931333354
95;1.2999999999999972;53;3;18;-542;-0.00018750572222052677;0.0;2.177503952146977;3.6867375102999973
96;1.3100000000000023;53;0;20;-542;-0.00018750572222052677;-0.00018750572222052677;2.17844148075808;3.6873000274666587
97;1.3299999999999983;57;1;20;-542;0.0;-0.00018750572222052677;2.17844148075808;3.686550004577777
98;1.3400000000000034;66;0;20;-543;-0.00018750572222052677;-0.00018750572222052677;2.1780664693136385;3.686550004577777
99;1.3599999999999994;81;2;20;-542;-0.00018750572222052677;-0.00018750572222052677;2.1782539750358594;3.6871125217444383
100;1.3700000000000045;84;1;21;-543;-0.00018750572222052677;0.0;2.1780664693136385;3.686550004577777
101;1.3799999999999955;78;1;21;-542;-0.00018750572222052677;-0.00018750572222052677;2.1793790093691823;3.6867375102999973
102;1.3999999999999915;80;1;21;-542;-0.00018750572222052677;0.0;2.1782539750358594;3.686550004577777
103;1.4099999999999966;65;2;18;-543;-0.00018750572222052677;-0.00018750572222052677;2.17844148075808;3.6863624988555563
104;1.4200000000000017;55;1;19;-543;0.0;-0.00018750572222052677;2.1780664693136385;3.6861749931333354
105;1.4399999999999977;50;0;21;-543;-0.00018750572222052677;-0.00018750572222052677;2.1776914578691975;3.6871125217444383
106;1.4500000000000028;53;2;21;-542;0.0;-0.00018750572222052677;2.1786289864803003;3.685612475966674
107;1.4699999999999989;62;2;21;-541;-0.00018750572222052677;-0.00018750572222052677;2.1793790093691823;3.685987487411115
108;1.480000000000004;62;0;19;-542;-0.00018750572222052677;-0.00018750572222052677;2.1780664693136385;3.6857999816888944
109;1.4899999999999949;58;2;20;-542;-0.00018750572222052677;-0.00018750572222052677;2.1776914578691975;3.6857999816888944
110;1.5100000000000051;53;1;20;-543;-0.00018750572222052677;-0.00018750572222052677;2.177503952146977;3.6863624988555563
111;1.519999999999996;38;2;18;-544;0.0;-0.00018750572222052677;2.1773164464247565;3.6857999816888944
112;1.5300000000000011;27;2;20;-543;0.0;-0.00018750572222052677;2.1782539750358594;3.686550004577777
113;1.5499999999999972;24;2;19;-543;0.0;-0.00037501144444105353;2.1782539750358594;3.686925016022218
114;1.5600000000000023;29;1;21;-542;-0.00018750572222052677;-0.00018750572222052677;2.1780664693136385;3.6871125217444383
115;1.5699999999999932;47;1;22;-543;-0.00018750572222052677;0.0;2.1776914578691975;3.686925016022218
116;1.5900000000000034;54;1;21;-542;0.0;-0.00018750572222052677;2.1782539750358594;3.686550004577777
117;1.5999999999999943;47;1;20;-543;0.0;-0.00018750572222052677;2.1793790093691823;3.686550004577777
118;1.6200000000000045;51;1;20;-542;-0.00018750572222052677;-0.00018750572222052677;2.1793790093691823;3.688612567522202
119;1.6299999999999955;44;1;20;-543;-0.00018750572222052677;-0.00018750572222052677;2.1782539750358594;3.6867375102999973
120;1.6400000000000006;30;1;19;-543;-0.00018750572222052677;-0.00018750572222052677;2.1782539750358594;3.6861749931333354
121;1.6599999999999966;33;0;21;-541;0.0;-0.00018750572222052677;2.1790039979247413;3.686550004577777
122;1.6700000000000017;43;1;19;-542;-0.00018750572222052677;-0.00018750572222052677;2.17844148075808;3.686550004577777
123;1.6799999999999926;45;2;20;-543;-0.00018750572222052677;-0.00018750572222052677;2.177503952146977;3.686550004577777
124;1.7000000000000028;47;2;21;-543;-0.00018750572222052677;-0.00018750572222052677;2.177878963591418;3.6861749931333354
125;1.7099999999999937;49;2;21;-544;0.0;-0.00018750572222052677;2.17844148075808;3.686925016022218
126;1.730000000000004;39;2;20;-542;0.0;-0.00018750572222052677;2.1790039979247413;3.688987578966643
127;1.7399999999999949;37;1;20;-543;-0.00018750572222052677;0.0;2.1786289864803003;3.6867375102999973
128;1.75;32;1;20;-542;0.0;-0.00018750572222052677;2.177878963591418;3.685987487411115
129;1.769999999999996;32;1;21;-543;-0.00018750572222052677;-0.00037501144444105353;2.1776914578691975;3.686550004577777
130;1.7800000000000011;42;1;20;-541;-0.00018750572222052677;-0.00018750572222052677;2.1769414349803156;3.686925016022218
131;1.789999999999992;48;1;19;-541;-0.00018750572222052677;-0.00018750572222052677;2.1786289864803003;3.6873000274666587
132;1.8100000000000023;50;1;21;-542;0.0;-0.00018750572222052677;2.179191503646962;3.6861749931333354
133;1.8199999999999932;43;2;21;-542;0.0;-0.00018750572222052677;2.17844148075808;3.6861749931333354
134;1.8400000000000034;39;1;20;-543;-0.00018750572222052677;-0.00037501144444105353;2.1782539750358594;3.689550096133305
135;1.8499999999999943;1;3;20;-543;0.0;0.0;2.1769414349803156;3.6867375102999973
136;1.8599999999999994;35;1;20;-543;-0.00018750572222052677;-0.00037501144444105353;2.177128940702536;3.6854249702444535
137;1.8799999999999955;36;1;20;-542;-0.00018750572222052677;-0.00018750572222052677;2.17844148075808;3.6854249702444535
138;1.8900000000000006;37;1;22;-544;0.0;-0.00018750572222052677;2.1793790093691823;3.6863624988555563
139;1.8999999999999915;46;1;21;-543;-0.00018750572222052677;0.0;2.1780664693136385;3.686925016022218
140;1.9200000000000017;44;0;22;-543;0.00018750572222052677;-0.00018750572222052677;2.177503952146977;3.6854249702444535
141;1.9299999999999926;42;1;20;-542;0.0;-0.00018750572222052677;2.178816492202521;3.685987487411115
142;1.9399999999999977;42;1;20;-543;0.0;-0.00037501144444105353;2.1795665150914028;3.688987578966643
143;1.9599999999999937;40;0;20;-543;-0.00018750572222052677;0.0;2.17844148075808;3.686925016022218
144;1.9699999999999989;32;2;20;-543;-0.00037501144444105353;-0.00018750572222052677;2.1793790093691823;3.6857999816888944
145;1.9899999999999949;36;2;20;-543;0.0;0.0;2.177878963591418;3.686925016022218
146;2.0;39;2;21;-544;-0.00018750572222052677;-0.00018750572222052677;2.177503952146977;3.686550004577777
147;2.010000000000005;44;1;20;-543;-0.00018750572222052677;-0.00018750572222052677;2.1773164464247565;3.686550004577777
148;2.030000000000001;49;2;19;-542;0.0;0.0;2.17844148075808;3.6861749931333354
149;2.039999999999992;44;1;20;-542;-0.00018750572222052677;-0.00018750572222052677;2.17844148075808;3.686550004577777
150;2.049999999999997;43;1;22;-542;0.00018750572222052677;-0.00037501144444105353;2.1797540208136237;3.6888000732444226
151;2.069999999999993;2;1;19;-542;-0.00018750572222052677;-0.00018750572222052677;2.177878963591418;3.686550004577777
152;2.0799999999999983;41;2;21;-543;0.0;-0.00018750572222052677;2.17844148075808;3.6863624988555563
153;2.0999999999999943;40;2;21;-541;0.0;-0.00037501144444105353;2.178816492202521;3.6857999816888944
154;2.1099999999999994;44;1;21;-543;0.0;-0.00018750572222052677;2.17844148075808;3.6861749931333354
155;2.1200000000000045;45;1;20;-542;-0.00018750572222052677;-0.00018750572222052677;2.1790039979247413;3.6863624988555563
156;2.1400000000000006;46;0;20;-542;0.0;-0.00018750572222052677;2.1786289864803003;3.6863624988555563
157;2.1499999999999915;39;2;21;-543;-0.00018750572222052677;-0.00037501144444105353;2.1776914578691975;3.6857999816888944
158;2.1599999999999966;36;2;21;-544;0.0;-0.00018750572222052677;2.179941526535844;3.6891750846888636
159;2.1799999999999926;37;1;20;-543;-0.00018750572222052677;-0.00018750572222052677;2.17844148075808;3.686925016022218
160;2.1899999999999977;37;2;21;-542;-0.00018750572222052677;-0.00018750572222052677;2.1790039979247413;3.6878625446333198
161;2.2099999999999937;43;2;20;-543;0.0;-0.00018750572222052677;2.1790039979247413;3.6867375102999973
162;2.219999999999999;44;2;21;-542;-0.00018750572222052677;0.0;2.1776914578691975;3.6850499588000125
163;2.230000000000004;48;1;21;-543;0.0;-0.00018750572222052677;2.17844148075808;3.6863624988555563
164;2.25;42;1;20;-541;0.0;-0.00037501144444105353;2.17844148075808;3.6861749931333354
165;2.260000000000005;40;1;21;-542;-0.00018750572222052677;-0.00037501144444105353;2.178816492202521;3.6871125217444383
166;2.269999999999996;36;1;20;-543;-0.00018750572222052677;-0.00018750572222052677;2.1805040437025056;3.688237556077761
167;2.289999999999992;36;2;18;-542;-0.00018750572222052677;-0.00018750572222052677;2.1782539750358594;3.685612475966674
168;2.299999999999997;38;3;20;-543;0.0;0.0;2.1769414349803156;3.685987487411115
169;2.319999999999993;41;0;19;-543;0.0;0.0;2.1780664693136385;3.685612475966674
170;2.3299999999999983;38;0;20;-542;0.0;-0.00037501144444105353;2.1780664693136385;3.685237464522233
171;2.3400000000000034;37;-1;21;-544;-0.00018750572222052677;-0.00018750572222052677;2.179191503646962;3.6861749931333354
172;2.3599999999999994;41;0;20;-541;-0.00018750572222052677;-0.00018750572222052677;2.1776914578691975;3.686925016022218
173;2.3700000000000045;41;1;20;-542;-0.00018750572222052677;-0.00018750572222052677;2.1782539750358594;3.686925016022218
174;2.3799999999999955;39;0;20;-542;0.0;-0.00018750572222052677;2.180691549424726;3.689362590411084
175;2.3999999999999915;36;1;17;-543;-0.00037501144444105353;0.0;2.17844148075808;3.686550004577777
176;2.4099999999999966;38;1;20;-542;0.0;-0.00018750572222052677;2.1780664693136385;3.6861749931333354
177;2.4299999999999926;41;0;20;-542;0.0;0.0;2.1773164464247565;3.686550004577777
178;2.4399999999999977;48;2;20;-541;-0.00018750572222052677;-0.00018750572222052677;2.1769414349803156;3.6874875331888792
179;2.450000000000003;41;1;21;-543;-0.00018750572222052677;-0.00018750572222052677;2.1790039979247413;3.6867375102999973
180;2.469999999999999;42;1;20;-542;0.0;-0.00018750572222052677;2.1793790093691823;3.6867375102999973
181;2.480000000000004;37;0;20;-543;0.0;-0.00018750572222052677;2.1790039979247413;3.6873000274666587
