;Time;Thrust;Pressure1;Pressure2;Weight;Current;Voltage;Battery12V;Battery24V
0;0.0;30;1;0;-287;0.0;2.0867511825922422;0.0;3.579859248634297
1;0.10000000000002274;35;2;1;-275;-0.00018750572222052677;-0.00018750572222052677;2.08937626270333;-0.00037501144444105353
2;0.20000000000001705;22;1;2;-1;-0.00018750572222052677;2.090876308481094;3.573109042634358;-0.00018750572222052677
3;0.30000000000001137;36;1;1;-294;0.0;0.0;-0.00018750572222052677;-0.00018750572222052677
4;0.5;34;1;6;2;-0.00018750572222052677;-0.00018750572222052677;-0.00018750572222052677;3.5794842371898556
5;0.6000000000000227;26;1;1;-335;0.0;2.0890012512588885;-0.00018750572222052677;-0.00018750572222052677
6;0.700000000000017;32;2;1;1;0.0;0.0;0.0;-0.00037501144444105353
7;0.8000000000000114;0;1;34;0;0.0;0.0;2.0865636768700218;0.0
8;0.9000000000000057;24;3;17;2;0.0;-0.00018750572222052677;-0.00018750572222052677;3.5794842371898556
9;1.1000000000000227;36;1;2;-285;-0.00018750572222052677;-0.00018750572222052677;2.089188756981109;-0.00018750572222052677
10;1.200000000000017;0;0;1;-276;-0.00018750572222052677;-0.00018750572222052677;-0.00018750572222052677;2.0873136997589037
11;1.3000000000000114;29;1;1;-277;-0.00018750572222052677;-0.00018750572222052677;2.0860011597033603;2.083563585314493
12;1.4000000000000057;36;22;4;1;0.0;-0.00018750572222052677;-0.00018750572222052677;2.0903137913144323
13;1.6000000000000227;19;39;3;2;-0.00018750572222052677;2.0965014801477095;3.5905470748008668;2.092376354258858
14;1.700000000000017;32;36;0;-300;-0.00018750572222052677;0.0;0.0;2.08243855098117
15;1.8000000000000114;37;35;-1;1;-0.00018750572222052677;-0.00018750572222052677;2.0826260567033903;3.581546800134282
16;1.9000000000000057;36;1;1;-322;-0.00018750572222052677;0.0;2.095938962981048;3.574234076967681
17;2.0;21;-1;20;3;-0.00018750572222052677;-0.00037501144444105353;-0.00018750572222052677;2.0800009765923035
18;2.1000000000000227;34;2;2;2;-0.00018750572222052677;-0.00018750572222052677;-0.00018750572222052677;-0.00018750572222052677
19;2.3000000000000114;26;29;30;-281;-0.00018750572222052677;-0.00037501144444105353;2.0786884365367597;3.5826718344676043
20;2.4000000000000057;16;2;29;2;-0.00018750572222052677;-0.00018750572222052677;-0.00018750572222052677;3.579296731467635
21;2.5;24;24;2;-302;-0.00018750572222052677;-0.00018750572222052677;2.0833760795922727;3.582484328745384
22;2.6000000000000227;1;2;0;-268;-0.00018750572222052677;-0.00018750572222052677;-0.00018750572222052677;3.5747965941343427
23;2.8000000000000114;12;0;1;3;-0.00018750572222052677;-0.00018750572222052677;0.0;3.579296731467635
24;2.9000000000000057;35;24;1;3;0.0;-0.00018750572222052677;0.0;3.5807967772453995
25;3.0;1;37;2;-285;-0.00018750572222052677;-0.00018750572222052677;2.083563585314493;3.5800467543565175
26;3.1000000000000227;-6;1;10;1;0.0;-0.00018750572222052677;2.0858136539811394;0.0
27;3.200000000000017;36;2;0;1;-0.00018750572222052677;-0.00018750572222052677;-0.00018750572222052677;2.0957514572588276
28;3.4000000000000057;1;35;36;3;0.0;0.0;-0.00018750572222052677;-0.00018750572222052677
29;3.5;31;1;24;-1;-0.00018750572222052677;-0.00018750572222052677;2.0878762169255656;-0.00018750572222052677
30;3.6000000000000227;2;36;0;-278;-0.00018750572222052677;-0.00018750572222052677;2.088813745536668;3.5751716055787837
31;3.700000000000017;0;31;0;34;0.0;0.0;2.0860011597033603;3.579859248634297
32;3.8000000000000114;28;1;3;-312;-0.00018750572222052677;2.0815010223700674;3.5740465712454603;3.5811717886898404
33;4.0;20;0;1;-293;-0.00018750572222052677;2.083938596758934;3.5723590197454755;3.5710464796899317
34;4.100000000000023;7;2;3;-285;-0.00018750572222052677;-0.00018750572222052677;2.085251136814478;3.5736715598010194
35;4.200000000000017;11;1;0;-307;-0.00018750572222052677;-0.00018750572222052677;2.088438734092227;0.0
36;4.300000000000011;35;1;1;2;-0.00018750572222052677;-0.00018750572222052677;2.0854386425366984;-0.00037501144444105353
37;4.400000000000006;16;3;19;-280;-0.00018750572222052677;-0.00018750572222052677;2.0886262398144475;0.0
38;4.5;34;1;26;-297;0.0;-0.00018750572222052677;2.0833760795922727;3.5759216284676656
39;4.700000000000017;37;1;39;2;0.0;2.0867511825922422;3.5866094546342357;-0.00037501144444105353
40;4.800000000000011;24;1;17;1;-0.00037501144444105353;0.0;2.087688711203345;3.5787342143009737
41;4.900000000000006;41;2;41;0;0.0;-0.00018750572222052677;2.0860011597033603;3.5800467543565175
42;5.0;53;50;2;0;0.0;-0.00018750572222052677;2.088813745536668;3.58098428296762
43;5.200000000000017;94;109;3;3;-0.00018750572222052677;-0.00018750572222052677;2.083938596758934;2.0830010681478317
44;5.300000000000011;238;0;1;3;3.5776091799676504;0.0;2.087688711203345;2.083563585314493
45;5.400000000000006;271;278;292;1;3.5813592944120614;-0.00037501144444105353;-0.00018750572222052677;3.576671651356548
46;5.5;362;2;2;-326;-0.00018750572222052677;-0.00037501144444105353;2.085626148258919;2.0846886196478165
47;5.5;400;391;1;-275;0.0;0.0;2.0803759880367445;3.57742167424543
48;5.700000000000017;458;1;1;-288;-0.00018750572222052677;-0.00037501144444105353;2.088063722647786;3.5791092257454147
49;5.800000000000011;458;2;1;-284;-0.00037501144444105353;0.0;2.0822510452589493;3.5822968230231633
50;5.900000000000006;2;468;0;-276;0.0;-0.00018750572222052677;2.0785009308145392;3.5783592028565328
51;6.0;449;1;1;-280;0.0;0.0;2.0796259651478626;3.5747965941343427
52;6.100000000000023;439;1;461;-300;3.5822968230231633;-0.00018750572222052677;2.08243855098117;3.5747965941343427
53;6.200000000000017;467;2;1;473;2.083938596758934;-0.00018750572222052677;2.080188482314524;3.5744215826899013
54;6.400000000000006;454;1;-1;-292;-0.00018750572222052677;3.5796717429120766;2.080938505203406;3.57385906552324
55;6.5;472;2;1;-291;0.0;-0.00018750572222052677;2.0867511825922422;2.088063722647786
56;6.600000000000023;495;2;4;-292;0.0;-0.00018750572222052677;2.0826260567033903;3.579859248634297
57;6.700000000000017;1;1;3;-277;-0.00018750572222052677;-0.00018750572222052677;2.082063539536729;3.5746090884121218
58;6.800000000000011;503;2;3;-299;-0.00018750572222052677;-0.00037501144444105353;2.080938505203406;3.5830468459120457
59;6.900000000000006;1;481;-1;-278;0.0;0.0;2.080938505203406;3.576671651356548
60;7.100000000000023;486;2;472;-271;3.5796717429120766;0.0;2.0800009765923035;3.5751716055787837
61;7.200000000000017;463;2;1;1;0.00018750572222052677;2.084501113925596;2.0878762169255656;3.5772341685232094
62;7.300000000000011;476;0;0;494;2.087688711203345;3.5781716971343123;2.083563585314493;3.574234076967681
63;7.400000000000006;463;1;1;-299;-0.00018750572222052677;3.5781716971343123;2.080938505203406;3.573484054078799
64;7.5;540;1;1;542;2.0890012512588885;0.0;2.0786884365367597;3.573109042634358
65;7.700000000000017;597;0;1;-299;-0.00018750572222052677;-0.00037501144444105353;2.087126194036683;3.579859248634297
66;7.800000000000011;548;2;1;0;-0.00018750572222052677;0.0;3.5811717886898404;3.5747965941343427
67;7.900000000000006;171;2;2;2;-0.00018750572222052677;2.0873136997589037;2.0863761711478013;3.57385906552324
68;8.0;19;0;2;3;0.0;2.0882512283700065;3.5800467543565175;3.5740465712454603
69;8.100000000000023;34;1;2;-296;0.0;-0.00018750572222052677;2.0800009765923035;3.5768591570787684
70;8.200000000000017;29;1;2;-277;-0.00018750572222052677;0.0;2.08243855098117;3.5702964568010502
71;8.400000000000006;18;3;2;-283;0.0;-0.00018750572222052677;2.0771883907589954;3.5747965941343427
72;8.5;33;2;0;-325;-0.00018750572222052677;0.0;2.0865636768700218;3.5822968230231633
73;8.600000000000023;36;0;1;-306;-0.00018750572222052677;-0.00018750572222052677;2.081313516647847;3.5817343058565023
74;8.700000000000017;39;2;0;-327;-0.00018750572222052677;-0.00018750572222052677;2.0796259651478626;3.58098428296762
75;8.800000000000011;36;1;2;-298;-0.00018750572222052677;-0.00018750572222052677;2.082813562425611;3.578921720023194
76;9.0;28;0;1;-270;-0.00018750572222052677;3.5804217658009585;2.0803759880367445;3.5744215826899013
77;9.100000000000023;24;0;0;38;2.0867511825922422;-0.00018750572222052677;2.0790634479812007;3.5736715598010194
78;9.200000000000017;12;1;1;-306;-0.00018750572222052677;-0.00018750572222052677;2.091251319925535;3.579296731467635
79;9.300000000000011;29;1;2;-280;0.0;-0.00037501144444105353;2.0830010681478317;3.577796685689871
80;9.400000000000006;4;-1;34;-274;3.5804217658009585;0.0;2.079250953703421;3.5755466170232246
81;9.5;31;1;1;-317;0.0;-0.00018750572222052677;2.0873136997589037;3.579859248634297
82;9.700000000000017;-3;0;0;-280;0.0;-0.00018750572222052677;2.080938505203406;3.573109042634358
83;9.800000000000011;19;0;35;-292;3.579296731467635;0.0;2.0818760338145084;3.5746090884121218
84;9.900000000000006;3;0;2;-304;-0.00018750572222052677;-0.00018750572222052677;2.084501113925596;3.5791092257454147
85;10.0;32;2;2;-304;-0.00037501144444105353;-0.00037501144444105353;2.0903137913144323;3.5776091799676504
86;10.100000000000023;20;2;2;0;0.0;2.0846886196478165;2.083938596758934;3.574234076967681
87;10.200000000000017;17;0;2;-282;-0.00018750572222052677;-0.00018750572222052677;2.089188756981109;3.5821093173009433
88;10.400000000000006;1;2;3;-275;-0.00018750572222052677;-0.00018750572222052677;2.080563493758965;3.573484054078799
89;10.5;26;2;0;25;2.087688711203345;-0.00018750572222052677;2.0786884365367597;3.5740465712454603
90;10.600000000000023;38;0;1;-289;0.0;0.0;2.0895637684255504;3.581546800134282
91;10.700000000000017;0;1;2;-272;-0.00018750572222052677;-0.00018750572222052677;2.0811260109256264;3.5732965483565784
92;10.800000000000011;1;0;3;-274;-0.00018750572222052677;-0.00018750572222052677;2.0783134250923188;3.5747965941343427
93;11.0;12;0;0;36;2.086188665425581;-0.00018750572222052677;2.0800009765923035;3.5759216284676656
94;11.100000000000023;37;2;0;-322;0.0;-0.00018750572222052677;2.0846886196478165;3.580234260078738
95;11.200000000000017;34;2;2;-291;-0.00018750572222052677;-0.00018750572222052677;2.088813745536668;3.576671651356548
96;11.300000000000011;21;0;2;-298;-0.00018750572222052677;-0.00018750572222052677;2.0785009308145392;3.5736715598010194
97;11.400000000000006;25;2;0;-279;2.08937626270333;-0.00018750572222052677;2.0837510910367136;3.5768591570787684
98;11.5;37;2;0;21;2.0878762169255656;3.5804217658009585;2.080563493758965;3.574984099856563
99;11.700000000000017;18;0;2;-334;-0.00018750572222052677;0.0;3.5781716971343123;3.574984099856563
100;11.800000000000011;37;1;2;-296;0.0;-0.00018750572222052677;2.0910638142033147;3.5807967772453995
101;11.900000000000006;14;34;0;-270;-0.00018750572222052677;-0.00018750572222052677;2.077375896481216;3.580609271523179
102;12.0;37;0;1;-324;2.085251136814478;-0.00018750572222052677;2.079813470870083;3.575359111301004
103;12.100000000000023;35;2;1;-313;0.0;-0.00018750572222052677;2.089188756981109;2.0873136997589037
104;12.300000000000011;34;1;3;-293;-0.00037501144444105353;-0.00037501144444105353;2.0858136539811394;3.5822968230231633
105;12.400000000000006;33;2;2;-291;-0.00018750572222052677;0.0;2.081688528092288;3.5807967772453995
106;12.5;30;1;0;-281;-0.00018750572222052677;-0.00018750572222052677;2.079813470870083;3.5768591570787684
107;12.600000000000023;33;0;2;-306;0.0;-0.00018750572222052677;2.0837510910367136;3.5768591570787684
108;12.700000000000017;34;2;3;-280;-0.00018750572222052677;0.0;2.080938505203406;3.577046662800989
109;12.900000000000006;36;2;2;-269;-0.00018750572222052677;-0.00018750572222052677;2.083188573870052;3.5791092257454147
110;13.0;31;0;2;-281;0.0;0.0;2.084313608203375;3.576109134189886
111;13.100000000000023;36;1;2;-275;0.0;0.0;2.0811260109256264;3.5764841456343275
112;13.200000000000017;35;2;2;-273;0.0;-0.00018750572222052677;2.084501113925596;3.5762966399121066
113;13.300000000000011;37;1;1;-282;-0.00018750572222052677;-0.00018750572222052677;2.083188573870052;3.5776091799676504
114;13.400000000000006;36;2;2;-277;-0.00018750572222052677;-0.00018750572222052677;2.082813562425611;3.5772341685232094
115;13.600000000000023;35;2;1;-278;-0.00018750572222052677;-0.00037501144444105353;2.0854386425366984;3.5783592028565328
116;13.700000000000017;34;2;1;-276;-0.00018750572222052677;-0.00018750572222052677;2.0822510452589493;3.5768591570787684
117;13.800000000000011;35;1;1;-275;-0.00018750572222052677;-0.00018750572222052677;2.080938505203406;3.5768591570787684
118;13.900000000000006;34;1;2;-276;-0.00018750572222052677;-0.00018750572222052677;2.082063539536729;3.5762966399121066
119;14.0;35;0;1;-279;0.0;-0.00018750572222052677;2.0826260567033903;3.5783592028565328
120;14.100000000000023;36;2;1;-278;-0.00018750572222052677;-0.00018750572222052677;2.083188573870052;3.576671651356548
121;14.300000000000011;35;2;1;-275;-0.00018750572222052677;0.0;2.081688528092288;3.5764841456343275
122;14.400000000000006;35;1;1;-277;-0.00018750572222052677;-0.00018750572222052677;2.085251136814478;3.576671651356548
123;14.5;34;2;1;-272;-0.00018750572222052677;0.0;2.0854386425366984;3.576671651356548
124;14.600000000000023;34;1;2;-279;-0.00018750572222052677;-0.00018750572222052677;2.082063539536729;3.577984191412092
125;14.700000000000017;33;1;1;-275;-0.00018750572222052677;-0.00037501144444105353;2.0873136997589037;3.5821093173009433
126;14.900000000000006;36;2;1;-278;-0.00018750572222052677;-0.00018750572222052677;2.0807509994811855;3.577984191412092
127;15.0;36;2;1;-273;0.0;-0.00018750572222052677;2.0815010223700674;3.5800467543565175
128;15.100000000000023;15;33;1;-276;-0.00018750572222052677;-0.00018750572222052677;2.0863761711478013;3.5796717429120766
129;15.200000000000017;37;2;2;-272;-0.00018750572222052677;-0.00018750572222052677;2.082063539536729;3.579859248634297
130;15.300000000000011;33;2;0;-280;-0.00018750572222052677;-0.00018750572222052677;2.0818760338145084;3.5785467085787532
131;15.5;35;1;2;1;-0.00018750572222052677;0.0;3.586234443189795;3.5768591570787684
132;15.600000000000023;34;1;2;-272;0.0;-0.00018750572222052677;2.0830010681478317;3.5772341685232094
133;15.700000000000017;35;3;1;-276;0.0;-0.00018750572222052677;2.0830010681478317;3.577984191412092
134;15.800000000000011;35;2;1;-301;0.0;2.090126285592212;3.5826718344676043;3.577046662800989
135;15.900000000000006;34;0;1;-276;0.0;-0.00018750572222052677;2.083938596758934;3.5768591570787684
136;16.0;33;1;2;-268;0.0;-0.00018750572222052677;2.082063539536729;3.5776091799676504
137;16.200000000000017;19;0;1;-289;-0.00018750572222052677;0.0;3.5826718344676043;3.578921720023194
138;16.30000000000001;2;1;-1;-274;0.0;-0.00018750572222052677;2.0807509994811855;3.57742167424543
139;16.400000000000006;35;1;1;-293;-0.00018750572222052677;-0.00018750572222052677;2.0803759880367445;3.5732965483565784
140;16.5;37;0;1;-284;-0.00018750572222052677;0.0;2.0850636310922575;3.5800467543565175
141;16.600000000000023;36;2;1;-288;-0.00018750572222052677;-0.00018750572222052677;2.083563585314493;3.577796685689871
142;16.80000000000001;21;0;1;-297;-0.00018750572222052677;-0.00018750572222052677;2.0886262398144475;3.580609271523179
143;16.900000000000006;9;0;2;-302;0.0;-0.00018750572222052677;2.079813470870083;3.579296731467635
144;17.0;23;2;1;-302;-0.00018750572222052677;0.0;2.0811260109256264;3.5759216284676656
145;17.100000000000023;36;1;1;-318;-0.00037501144444105353;-0.00018750572222052677;2.0863761711478013;3.573484054078799
146;17.200000000000017;21;2;1;-282;-0.00018750572222052677;0.0;3.580609271523179;3.5740465712454603
147;17.400000000000006;8;2;1;35;2.0863761711478013;-0.00018750572222052677;2.079250953703421;3.5736715598010194
148;17.5;26;0;1;16;-0.00018750572222052677;3.580234260078738;2.082063539536729;3.575359111301004
149;17.600000000000023;37;1;1;-280;3.5813592944120614;-0.00018750572222052677;2.0833760795922727;3.5751716055787837
150;17.700000000000017;34;1;2;-285;-0.00018750572222052677;-0.00018750572222052677;2.08243855098117;3.577046662800989
151;17.80000000000001;3;-1;2;-278;-0.00018750572222052677;-0.00018750572222052677;2.07887594225898;3.579296731467635
152;17.900000000000006;0;-1;0;-270;-0.00018750572222052677;-0.00018750572222052677;2.076063356425672;3.5747965941343427
153;18.100000000000023;21;1;1;-311;-0.00018750572222052677;-0.00037501144444105353;2.089188756981109;3.5796717429120766
154;18.200000000000017;20;2;0;-274;0.0;-0.00018750572222052677;2.0826260567033903;3.5762966399121066
155;18.30000000000001;38;2;2;-310;-0.00018750572222052677;-0.00018750572222052677;2.0942514114810633;3.5772341685232094
156;18.400000000000006;35;3;3;-301;-0.00018750572222052677;0.0;2.087501205481124;2.0869386883144627
157;18.5;30;3;1;-300;-0.00018750572222052677;0.0;2.0775634022034364;3.5755466170232246
158;18.700000000000017;23;1;1;-281;3.5826718344676043;0.0;2.0815010223700674;3.5747965941343427
159;18.80000000000001;34;1;0;-273;-0.00037501144444105353;-0.00018750572222052677;2.082063539536729;3.574234076967681
160;18.900000000000006;2;11;1;-275;-0.00018750572222052677;-0.00037501144444105353;2.077938413647878;3.575734122745445
161;19.0;26;3;1;-284;-0.00018750572222052677;-0.00018750572222052677;2.0803759880367445;3.574234076967681
162;19.100000000000023;11;2;19;-279;3.581921811578723;0.0;2.0815010223700674;3.576109134189886
163;19.200000000000017;35;1;0;32;2.087688711203345;-0.00018750572222052677;2.0815010223700674;3.5755466170232246
164;19.400000000000006;36;1;1;32;2.0869386883144627;0.0;2.0833760795922727;3.574234076967681
165;19.5;20;-1;3;-272;0.0;-0.00018750572222052677;2.0794384594256416;3.5746090884121218
166;19.600000000000023;35;1;0;19;2.084313608203375;-0.00018750572222052677;2.0796259651478626;3.5740465712454603
167;19.700000000000017;23;0;1;-276;3.5817343058565023;-0.00018750572222052677;2.0740007934812463;3.5759216284676656
168;19.80000000000001;22;2;29;-281;3.5783592028565328;0.0;2.081313516647847;3.5764841456343275
169;20.0;23;1;1;-312;-0.00037501144444105353;2.0878762169255656;2.0878762169255656;3.575734122745445
170;20.100000000000023;35;1;2;-296;0.0;-0.00018750572222052677;2.0803759880367445;3.575734122745445
171;20.200000000000017;2;2;0;-275;0.0;0.0;2.0781259193700983;3.573484054078799
172;20.30000000000001;35;-1;1;-276;0.0;-0.00018750572222052677;2.089751274147771;2.0948139286477248
173;20.400000000000006;28;0;1;-295;-0.00037501144444105353;-0.00018750572222052677;2.079250953703421;3.5879219946897796
174;20.5;33;1;2;33;2.092376354258858;3.5830468459120457;2.0740007934812463;3.576109134189886
175;20.700000000000017;31;0;1;3;-0.00037501144444105353;2.0927513657032994;3.588109500412;3.577796685689871
176;20.80000000000001;5;1;1;2;0.0;2.084876125370037;2.0837510910367136;3.5759216284676656
177;20.900000000000006;36;0;1;-290;0.00018750572222052677;0.0;2.0815010223700674;3.576671651356548
178;21.0;25;2;0;-274;0.0;3.5787342143009737;2.080938505203406;3.575359111301004
179;21.100000000000023;34;1;1;-288;-0.00037501144444105353;0.0;2.087126194036683;3.58098428296762
180;21.200000000000017;27;1;2;-299;-0.00018750572222052677;-0.00018750572222052677;2.0803759880367445;3.5804217658009585
181;21.400000000000006;13;0;2;-300;-0.00037501144444105353;-0.00018750572222052677;2.080188482314524;3.5747965941343427
182;21.5;35;1;2;-298;0.0;-0.00018750572222052677;2.0833760795922727;3.5781716971343123
183;21.600000000000023;19;1;0;-301;-0.00018750572222052677;-0.00018750572222052677;2.088063722647786;2.0865636768700218
184;21.700000000000017;1;1;3;-276;-0.00018750572222052677;-0.00018750572222052677;2.0800009765923035;3.5747965941343427
185;21.80000000000001;33;1;3;36;2.0854386425366984;0.0;2.0815010223700674;3.5746090884121218
186;21.900000000000006;16;1;1;1;-0.00018750572222052677;2.084876125370037;2.088438734092227;3.5746090884121218
187;22.100000000000023;37;2;1;-279;-0.00018750572222052677;-0.00018750572222052677;2.087126194036683;3.5804217658009585
188;22.200000000000017;38;1;0;-303;-0.00018750572222052677;-0.00018750572222052677;2.090126285592212;3.577984191412092
189;22.30000000000001;37;1;1;-279;-0.00018750572222052677;-0.00037501144444105353;2.085626148258919;3.5817343058565023
190;22.400000000000006;37;1;1;-281;-0.00018750572222052677;0.0;2.086188665425581;3.581921811578723
