;Time;Thrust;Pressure1;Pressure2;Weight;Current;Voltage;Battery12V;Battery24V
0;0.0;44;3;0;-533;-0.00018750572222052677;-0.00018750572222052677;2.154253242591632;3.540483046967986
1;0.10000000000000142;39;1;1;-532;-0.00018750572222052677;-0.00018750572222052677;2.152003173924985;3.54179558702353
2;0.20000000000000284;41;1;0;-530;0.0;-0.00018750572222052677;2.149190588091678;3.5412330698568684
3;0.30000000000000426;41;1;0;-531;-0.00018750572222052677;-0.00018750572222052677;2.151440656758324;3.5408580584124274
4;0.4000000000000057;39;2;1;-530;-0.00018750572222052677;0.0;2.1510656453138832;3.539358012634663
5;0.5;43;2;2;-533;-0.00018750572222052677;-0.00018750572222052677;2.149565599536119;3.539733024079104
6;0.6000000000000014;34;2;2;-533;-0.00018750572222052677;-0.00018750572222052677;2.1512531510361037;3.542920621356853
7;0.8000000000000043;38;2;3;-531;-0.00018750572222052677;-0.00018750572222052677;2.1538782311471905;3.54179558702353
8;0.9000000000000057;42;0;2;-532;-0.00018750572222052677;-0.00018750572222052677;2.156878322702719;2.1593158970915862
9;1.0;39;2;2;-530;3.5466707358012637;-0.00018750572222052677;2.1518156682027647;3.5412330698568684
10;1.1000000000000014;45;1;2;-531;0.0;0.0;2.1508781395916627;3.5395455183568836
11;1.2000000000000028;39;2;3;-530;-0.00018750572222052677;-0.00018750572222052677;2.154253242591632;3.5408580584124274
12;1.3000000000000043;45;1;1;-530;-0.00018750572222052677;-0.00018750572222052677;2.152940702536088;3.5402955412457655
13;1.4000000000000057;42;1;2;-532;-0.00018750572222052677;-0.00018750572222052677;2.1521906796472057;3.5384204840235602
14;1.5;40;1;1;-530;-0.00018750572222052677;-0.00018750572222052677;2.1553782769249548;3.5421705984679708
15;1.7000000000000028;44;2;0;-532;-0.00018750572222052677;-0.00018750572222052677;2.150315622425001;3.5402955412457655
16;1.8000000000000043;41;-1;2;-532;-0.00018750572222052677;-0.00018750572222052677;2.150315622425001;3.54179558702353
17;1.9000000000000057;37;0;0;-534;-0.00018750572222052677;0.0;2.1512531510361037;3.537857966856899
18;2.0;45;2;1;-530;-0.00018750572222052677;-0.00037501144444105353;2.149565599536119;3.5402955412457655
19;2.1000000000000014;43;0;0;-531;-0.00018750572222052677;0.0;2.152940702536088;3.539733024079104
20;2.200000000000003;40;1;1;-532;0.0;-0.00037501144444105353;2.152565691091647;3.5391705069124426
21;2.3000000000000043;104;-1;-2;-1050;0.0;-0.00018750572222052677;2.1540657368694114;3.543295632801294
22;2.5;109;-1;0;-990;-0.00018750572222052677;-0.00037501144444105353;2.1516281624805447;3.542545609912412
23;2.6000000000000014;108;0;1;-896;-0.00018750572222052677;-0.00018750572222052677;2.1510656453138832;3.541420575579089
24;2.700000000000003;119;1;0;-883;-0.00037501144444105353;-0.00018750572222052677;2.1516281624805447;3.538795495468001
25;2.8000000000000043;148;-1;1;-889;-0.00018750572222052677;-0.00018750572222052677;2.1521906796472057;3.5447956785790584
26;2.9000000000000057;148;-1;2;-796;-0.00018750572222052677;-0.00018750572222052677;2.152565691091647;3.5451706900234994
27;3.0;119;1;1;-714;-0.00018750572222052677;-0.00018750572222052677;2.1576283455916014;3.5406705526902065
28;3.1000000000000014;124;2;2;-749;-0.00018750572222052677;-0.00018750572222052677;2.151440656758324;3.5391705069124426
29;3.3000000000000043;104;1;-1;-750;-0.00018750572222052677;0.0;2.155753288369396;3.541045564134648
30;3.4000000000000057;94;1;1;-740;0.0;0.0;2.1506906338694423;3.5419830927457503
31;3.5;73;1;0;-637;-0.00037501144444105353;-0.00018750572222052677;2.154253242591632;3.540483046967986
32;3.6000000000000014;69;0;1;-649;-0.00037501144444105353;-0.00018750572222052677;2.154253242591632;3.5427331156346327
33;3.700000000000003;81;1;1;-758;0.0;0.0;2.1527531968138676;3.5416080813013093
34;3.8000000000000043;106;-1;0;-816;-0.00018750572222052677;-0.00018750572222052677;2.1512531510361037;3.5416080813013093
35;3.9000000000000057;116;0;1;-816;0.0;-0.00018750572222052677;2.1548157597582933;3.5431081270790736
36;4.100000000000001;174;0;0;-954;0.0;-0.00018750572222052677;2.152003173924985;3.5444206671346175
37;4.200000000000003;245;-3;-3;-1152;-0.00018750572222052677;-0.00018750572222052677;2.152565691091647;3.542920621356853
38;4.300000000000004;260;-2;-1;-1147;-0.00018750572222052677;-0.00018750572222052677;2.1587533799249248;3.5444206671346175
39;4.400000000000006;261;-2;-2;-1130;-0.00037501144444105353;-0.00018750572222052677;2.1566908169804986;3.5419830927457503
40;4.5;221;0;-1;-1052;-0.00018750572222052677;-0.00018750572222052677;2.1555657826471757;3.5406705526902065
41;4.600000000000001;197;-1;-2;-1048;-0.00018750572222052677;-0.00018750572222052677;2.1548157597582933;3.5416080813013093
42;4.700000000000003;196;0;0;-1040;-0.00018750572222052677;-0.00037501144444105353;2.1540657368694114;3.543295632801294
43;4.900000000000006;227;0;-1;-1028;0.0;-0.00037501144444105353;2.1593158970915862;3.5474207586901456
44;5.0;253;-1;-1;261;-0.00018750572222052677;2.1619409772026734;2.156878322702719;3.541420575579089
45;5.100000000000001;260;-1;2;-1025;0.0;-0.00018750572222052677;2.152565691091647;3.5399205298013245
46;5.200000000000003;258;0;1;-1039;-0.00018750572222052677;-0.00018750572222052677;2.1523781853694266;3.539358012634663
47;5.300000000000004;266;-2;-1;-1109;-0.00018750572222052677;-0.00018750572222052677;2.152940702536088;3.5399205298013245
48;5.400000000000006;282;-2;-1;-1108;-0.00018750572222052677;0.0;2.1506906338694423;3.5419830927457503
49;5.5;307;-3;-1;-1102;-0.00018750572222052677;-0.00018750572222052677;2.153315713980529;3.539733024079104
50;5.600000000000001;310;-2;-1;-1099;-0.00018750572222052677;-0.00018750572222052677;2.1523781853694266;3.540483046967986
51;5.700000000000003;371;-3;-3;-1202;-0.00018750572222052677;-0.00018750572222052677;2.155003265480514;3.541045564134648
52;5.800000000000004;420;-12;-12;-1349;-0.00018750572222052677;-0.00018750572222052677;2.1512531510361037;3.5444206671346175
53;5.900000000000006;413;-14;-13;-1347;-0.00018750572222052677;-0.00018750572222052677;2.158190862758263;3.541420575579089
54;6.0;362;-7;-8;-1286;-0.00018750572222052677;0.0;2.1527531968138676;3.5412330698568684
55;6.100000000000001;314;-4;-4;-1202;-0.00018750572222052677;-0.00037501144444105353;2.156503311258278;3.5419830927457503
56;6.200000000000003;310;-2;-4;-1178;0.0;0.0;2.1553782769249548;3.5402955412457655
57;6.400000000000006;311;-4;-3;-1161;-0.00018750572222052677;-0.00018750572222052677;2.1512531510361037;3.5419830927457503
58;6.5;296;-2;-3;-1132;-0.00018750572222052677;-0.00018750572222052677;2.1531282082583085;3.5412330698568684
59;6.600000000000001;284;-2;-2;-1125;0.0;-0.00018750572222052677;2.152565691091647;3.5406705526902065
60;6.700000000000003;290;-2;-3;-1117;-0.00018750572222052677;-0.00018750572222052677;2.156503311258278;2.161753471480453
61;6.800000000000004;293;0;-1;-1091;3.5459207129123818;-0.00018750572222052677;2.154253242591632;3.5412330698568684
62;6.900000000000006;298;0;-2;-1086;0.0;-0.00018750572222052677;2.1538782311471905;3.5408580584124274
63;7.0;296;-1;0;-1080;-0.00018750572222052677;-0.00018750572222052677;2.1531282082583085;3.5402955412457655
64;7.200000000000003;301;-3;-2;-1094;-0.00018750572222052677;-0.00018750572222052677;2.152003173924985;3.5382329783013398
65;7.300000000000004;274;-1;-1;-1036;-0.00018750572222052677;-0.00018750572222052677;2.1493780938138984;3.5434831385235146
66;7.400000000000006;261;0;-1;-997;-0.00018750572222052677;-0.00018750572222052677;2.152940702536088;3.541045564134648
67;7.5;263;1;0;-973;-0.00018750572222052677;-0.00018750572222052677;2.1531282082583085;3.539358012634663
68;7.600000000000001;248;0;0;-946;-0.00018750572222052677;-0.00018750572222052677;2.15369072542497;3.543295632801294
69;7.700000000000003;243;0;1;-921;0.0;-0.00018750572222052677;2.154253242591632;3.5395455183568836
70;7.800000000000004;239;2;1;-911;-0.00018750572222052677;-0.00018750572222052677;2.15369072542497;3.5406705526902065
71;7.900000000000006;219;-1;0;-895;-0.00037501144444105353;-0.00018750572222052677;2.149565599536119;3.5416080813013093
72;8.100000000000001;207;1;0;-867;-0.00018750572222052677;-0.00037501144444105353;2.1540657368694114;3.5421705984679708
73;8.200000000000003;207;-2;2;-846;0.0;-0.00037501144444105353;2.1535032197027495;3.542920621356853
74;8.300000000000004;213;-1;0;-847;-0.00018750572222052677;-0.00018750572222052677;2.1480655537583546;3.5395455183568836
75;8.400000000000006;225;0;1;-851;-0.00018750572222052677;0.0;2.155003265480514;3.5416080813013093
76;8.5;219;-1;1;-861;-0.00018750572222052677;-0.00018750572222052677;2.152940702536088;3.5427331156346327
77;8.600000000000001;235;0;1;-883;-0.00018750572222052677;0.0;2.1553782769249548;3.5462957243568227
78;8.700000000000003;237;0;236;-1;-0.00018750572222052677;3.548358287301248;2.150315622425001;3.540108035523545
79;8.900000000000006;0;1;1;-890;-0.00018750572222052677;-0.00018750572222052677;2.1508781395916627;3.54179558702353
80;9.0;252;0;0;-913;-0.00018750572222052677;-0.00018750572222052677;2.1535032197027495;3.5423581041901913
81;9.100000000000001;270;1;1;-948;-0.00018750572222052677;0.0;2.1518156682027647;3.5412330698568684
82;9.200000000000003;271;-1;0;-968;-0.00018750572222052677;-0.00018750572222052677;2.1538782311471905;3.541045564134648
83;9.300000000000004;262;0;0;-966;0.0;-0.00018750572222052677;2.152003173924985;3.5406705526902065
84;9.400000000000006;282;-1;0;-968;0.0;-0.00018750572222052677;2.154253242591632;3.5412330698568684
85;9.5;295;2;1;-850;-0.00018750572222052677;-0.00018750572222052677;2.15369072542497;3.5384204840235602
86;9.700000000000003;247;1;1;-667;0.0;-0.00018750572222052677;2.1551907712027343;3.5395455183568836
87;9.800000000000004;139;3;0;-534;-0.00018750572222052677;-0.00018750572222052677;2.1521906796472057;3.542920621356853
88;9.900000000000006;78;0;0;-714;-0.00018750572222052677;-0.00018750572222052677;2.1538782311471905;3.5427331156346327
89;10.0;43;3;1;-531;-0.00018750572222052677;0.0;2.1523781853694266;3.5412330698568684
90;10.100000000000001;39;1;2;-532;-0.00018750572222052677;-0.00018750572222052677;2.155003265480514;3.5395455183568836
91;10.200000000000003;36;1;3;-529;-0.00018750572222052677;-0.00018750572222052677;2.1493780938138984;3.5402955412457655
92;10.300000000000004;40;1;2;-531;-0.00018750572222052677;-0.00018750572222052677;2.153315713980529;3.5423581041901913
93;10.5;35;1;1;-533;-0.00018750572222052677;-0.00018750572222052677;2.1523781853694266;3.541420575579089
94;10.600000000000001;38;1;1;-532;-0.00018750572222052677;-0.00018750572222052677;2.1508781395916627;3.5408580584124274
95;10.700000000000003;42;1;2;-534;-0.00018750572222052677;-0.00018750572222052677;2.156503311258278;3.5419830927457503
96;10.800000000000004;39;0;0;-532;2.1559407940916167;-0.00018750572222052677;2.1535032197027495;3.5382329783013398
97;10.900000000000006;3;2;1;-533;0.0;-0.00018750572222052677;2.1497531052583394;3.5382329783013398
98;11.0;41;2;1;-529;-0.00018750572222052677;-0.00018750572222052677;2.1523781853694266;3.541045564134648
99;11.100000000000001;45;0;1;-532;0.0;0.0;2.152003173924985;3.5399205298013245
100;11.300000000000004;43;2;2;-527;-0.00018750572222052677;-0.00018750572222052677;2.152003173924985;3.539358012634663
101;11.400000000000006;42;1;2;-531;0.0;-0.00018750572222052677;2.1510656453138832;3.5408580584124274
102;11.5;38;1;2;-531;-0.00018750572222052677;-0.00018750572222052677;2.152003173924985;3.5421705984679708
103;11.600000000000001;41;2;1;-532;0.0;-0.00018750572222052677;2.152565691091647;3.540108035523545
104;11.700000000000003;40;2;2;-531;-0.00037501144444105353;0.0;2.1521906796472057;3.5402955412457655
105;11.800000000000004;38;1;1;-535;-0.00018750572222052677;-0.00018750572222052677;2.1508781395916627;3.54179558702353
106;11.900000000000006;38;2;1;-531;-0.00018750572222052677;-0.00018750572222052677;2.1523781853694266;3.5408580584124274
107;12.100000000000001;39;2;1;-530;-0.00018750572222052677;-0.00018750572222052677;2.1521906796472057;3.5382329783013398
108;12.200000000000003;41;2;2;-530;-0.00018750572222052677;-0.00018750572222052677;2.1506906338694423;3.5408580584124274
109;12.299999999999997;41;0;1;-532;-0.00018750572222052677;-0.00018750572222052677;2.151440656758324;3.536920438245796
110;12.400000000000006;45;1;2;-530;-0.00018750572222052677;-0.00018750572222052677;2.1506906338694423;3.5395455183568836
111;12.5;38;2;1;-533;-0.00018750572222052677;0.0;2.153315713980529;3.5421705984679708
112;12.600000000000009;38;1;2;-533;-0.00018750572222052677;0.0;2.149003082369457;3.537295449690237
113;12.700000000000003;39;2;1;-531;-0.00018750572222052677;0.0;2.1535032197027495;2.1587533799249248
114;12.799999999999997;45;44;2;-534;3.5447956785790584;-0.00018750572222052677;2.149003082369457;3.5399205298013245
115;13.0;40;2;1;-532;-0.00018750572222052677;-0.00037501144444105353;2.152003173924985;3.5416080813013093
116;13.100000000000009;42;3;2;-530;-0.00018750572222052677;-0.00037501144444105353;2.152003173924985;3.5416080813013093
117;13.200000000000003;41;1;1;-530;0.0;-0.00018750572222052677;2.1523781853694266;3.538795495468001
118;13.299999999999997;34;2;1;-534;-0.00018750572222052677;-0.00018750572222052677;2.152565691091647;3.539733024079104
119;13.400000000000006;41;2;1;-532;-0.00018750572222052677;-0.00018750572222052677;2.1527531968138676;3.5399205298013245
120;13.5;39;2;1;-533;0.0;-0.00018750572222052677;2.1508781395916627;3.539358012634663
121;13.700000000000003;38;0;4;-530;-0.00018750572222052677;0.0;2.1493780938138984;3.5391705069124426
122;13.799999999999997;31;2;2;-532;-0.00018750572222052677;-0.00037501144444105353;2.1540657368694114;3.539733024079104
123;13.900000000000006;40;1;0;-533;-0.00018750572222052677;-0.00018750572222052677;2.1521906796472057;3.5391705069124426
124;14.0;36;3;2;-531;-0.00018750572222052677;-0.00018750572222052677;2.1523781853694266;3.538795495468001
125;14.100000000000009;40;-1;1;-533;-0.00018750572222052677;-0.00018750572222052677;2.152565691091647;3.5402955412457655
126;14.200000000000003;50;1;1;-533;-0.00018750572222052677;-0.00018750572222052677;2.149565599536119;3.539358012634663
127;14.299999999999997;39;3;1;-529;-0.00018750572222052677;-0.00018750572222052677;2.148628070925016;3.540108035523545
128;14.400000000000006;39;2;2;-534;0.0;-0.00018750572222052677;2.1521906796472057;3.5406705526902065
129;14.600000000000009;40;2;1;-530;-0.00018750572222052677;-0.00018750572222052677;2.1527531968138676;3.54179558702353
130;14.700000000000003;39;3;1;-533;0.0;0.0;2.1535032197027495;3.541420575579089
131;14.799999999999997;36;2;2;-531;-0.00018750572222052677;-0.00018750572222052677;2.1548157597582933;3.5444206671346175
132;14.900000000000006;44;1;2;-533;0.0;-0.00018750572222052677;2.150315622425001;3.5389830011902217
133;15.0;44;0;0;-532;-0.00018750572222052677;-0.00018750572222052677;2.1516281624805447;3.540108035523545
134;15.100000000000009;39;2;1;-531;-0.00018750572222052677;-0.00018750572222052677;2.1506906338694423;3.5382329783013398
135;15.200000000000003;39;2;3;-532;-0.00018750572222052677;-0.00018750572222052677;2.149565599536119;3.540108035523545
136;15.400000000000006;38;0;1;-532;-0.00018750572222052677;-0.00037501144444105353;2.1508781395916627;3.5406705526902065
137;15.5;47;-1;0;-530;-0.00018750572222052677;-0.00018750572222052677;2.1505031281472213;3.5408580584124274
138;15.600000000000009;37;0;0;-533;-0.00018750572222052677;-0.00037501144444105353;2.154253242591632;3.540483046967986
139;15.700000000000003;39;3;1;-533;0.0;0.0;2.1527531968138676;3.540108035523545
140;15.799999999999997;38;1;1;-533;-0.00018750572222052677;-0.00018750572222052677;2.152003173924985;3.540108035523545
141;15.900000000000006;45;0;1;-532;-0.00018750572222052677;-0.00018750572222052677;2.1531282082583085;3.5371079439680164
142;16.0;40;2;2;-534;0.0;-0.00018750572222052677;2.152003173924985;3.5395455183568836
143;16.200000000000003;36;2;1;-532;-0.00018750572222052677;-0.00018750572222052677;2.1531282082583085;3.5399205298013245
144;16.299999999999997;40;1;1;-529;-0.00018750572222052677;-0.00018750572222052677;2.1516281624805447;3.5384204840235602
145;16.400000000000006;43;1;1;-533;-0.00018750572222052677;-0.00018750572222052677;2.1497531052583394;3.5406705526902065
146;16.5;42;1;1;-533;-0.00018750572222052677;-0.00018750572222052677;2.151440656758324;3.5408580584124274
147;16.60000000000001;38;-1;1;-532;-0.00018750572222052677;-0.00018750572222052677;2.152940702536088;3.5391705069124426
148;16.700000000000003;39;2;1;-532;-0.00018750572222052677;-0.00018750572222052677;2.14994061098056;3.5431081270790736
149;16.799999999999997;35;3;0;-535;-0.00018750572222052677;-0.00018750572222052677;3.544983184301279;3.5395455183568836
150;17.0;40;0;2;-532;-0.00018750572222052677;0.0;2.1516281624805447;3.5391705069124426
151;17.10000000000001;40;2;0;-531;-0.00018750572222052677;-0.00037501144444105353;2.1508781395916627;3.5395455183568836
152;17.200000000000003;39;1;1;-533;0.0;-0.00018750572222052677;2.154628254036073;3.5380454725791193
153;17.299999999999997;41;1;0;-532;-0.00018750572222052677;0.0;2.1506906338694423;3.5408580584124274
154;17.400000000000006;45;0;1;-533;-0.00018750572222052677;-0.00018750572222052677;2.152565691091647;3.540108035523545
155;17.5;39;2;0;-532;-0.00018750572222052677;-0.00018750572222052677;2.1518156682027647;3.5399205298013245
156;17.60000000000001;40;1;1;-532;-0.00018750572222052677;0.00018750572222052677;2.152565691091647;3.539358012634663
157;17.799999999999997;45;2;1;-532;-0.00018750572222052677;-0.00018750572222052677;2.1551907712027343;3.541420575579089
158;17.900000000000006;38;3;0;-534;-0.00018750572222052677;-0.00018750572222052677;2.154628254036073;3.5431081270790736
159;18.0;39;1;2;-531;0.0;-0.00018750572222052677;2.1544407483138523;3.5416080813013093
160;18.10000000000001;42;2;0;-531;0.0;0.0;2.151440656758324;3.541045564134648
161;18.200000000000003;43;2;2;-532;-0.00018750572222052677;-0.00018750572222052677;2.1527531968138676;3.5416080813013093
162;18.299999999999997;37;0;2;-534;-0.00018750572222052677;-0.00018750572222052677;2.1551907712027343;3.541420575579089
163;18.400000000000006;40;1;0;-533;-0.00037501144444105353;-0.00018750572222052677;2.1535032197027495;3.540108035523545
164;18.5;42;2;2;-533;-0.00018750572222052677;-0.00018750572222052677;2.1531282082583085;3.5402955412457655
165;18.700000000000003;41;3;1;-534;-0.00037501144444105353;0.0;2.14994061098056;3.539733024079104
166;18.799999999999997;39;2;1;-531;-0.00018750572222052677;-0.00037501144444105353;2.1531282082583085;3.542545609912412
167;18.900000000000006;39;3;2;-533;-0.00018750572222052677;-0.00018750572222052677;2.155753288369396;3.544983184301279
168;19.0;37;0;1;-533;0.0;-0.00018750572222052677;2.151440656758324;3.5408580584124274
169;19.10000000000001;38;1;3;-532;0.0;-0.00018750572222052677;2.1510656453138832;3.537295449690237
170;19.200000000000003;40;1;2;-531;-0.00018750572222052677;-0.00018750572222052677;2.1501281167027804;3.541045564134648
171;19.299999999999997;43;0;0;-532;-0.00018750572222052677;-0.00037501144444105353;2.151440656758324;3.5402955412457655
172;19.5;45;1;2;-529;-0.00018750572222052677;-0.00018750572222052677;2.1521906796472057;3.539358012634663
173;19.60000000000001;32;1;1;-531;0.0;-0.00018750572222052677;2.1512531510361037;3.5399205298013245
174;19.700000000000003;39;2;2;-533;-0.00018750572222052677;-0.00018750572222052677;2.1497531052583394;3.5380454725791193
175;19.799999999999997;37;2;0;-532;-0.00018750572222052677;-0.00018750572222052677;2.153315713980529;3.5399205298013245
176;19.900000000000006;41;3;1;-531;-0.00018750572222052677;-0.00018750572222052677;2.1516281624805447;3.5408580584124274
177;20.0;41;2;2;-533;0.0;-0.00037501144444105353;2.1544407483138523;3.5402955412457655
178;20.10000000000001;42;1;1;-532;0.0;-0.00018750572222052677;2.1523781853694266;3.539358012634663
179;20.299999999999997;39;0;2;-532;0.0;-0.00018750572222052677;2.15369072542497;3.5391705069124426
180;20.400000000000006;40;1;2;-532;-0.00018750572222052677;0.0;2.1518156682027647;3.539358012634663
