;Time;Thrust;Pressure1;Pressure2;Weight;Current;Voltage;Battery12V;Battery24V
0;2.956390380859375e-05;0;-1452;-1452;-445;-0.00018750572222052677;-0.00018750572222052677;1.9391841792046876;3.389165929136021
1;0.015732526779174805;0;-1452;-1452;-445;-0.00018750572222052677;-0.00018750572222052677;1.9418092593157752;3.3901034577471236
2;0.031200885772705078;0;-1452;-1452;-445;-0.00018750572222052677;-0.00037501144444105353;1.9438718222602007;3.38879091769158
3;0.04669904708862305;0;-1452;-1452;-445;-0.00018750572222052677;-0.00018750572222052677;1.944996856593524;3.387103366191595
4;0.062207937240600586;0;-1452;-1452;-445;-0.00037501144444105353;-0.00018750572222052677;1.9412467421491135;3.388415906247139
5;0.07750797271728516;0;-1452;-1452;-445;-0.00018750572222052677;-0.00018750572222052677;1.9404967192602314;3.3910409863582265
6;0.09280180931091309;0;-1452;-1452;-445;-0.00018750572222052677;-0.00018750572222052677;1.9408717307046723;3.3878533890804774
7;0.10820698738098145;0;-1452;-1452;-445;-0.00018750572222052677;0.0;1.9446218451490829;3.3923535264137703
8;0.12321853637695312;0;-1452;-1452;-445;-0.00018750572222052677;-0.00018750572222052677;1.9436843165379802;3.3906659749137855
9;0.1389296054840088;0;-1452;-1452;-445;0.0;-0.00018750572222052677;1.9431217993713188;3.3914159978026674
10;0.15429186820983887;0;-1452;-1452;-445;-0.00018750572222052677;-0.00018750572222052677;1.9438718222602007;3.3893534348582417
11;0.1696460247039795;0;-1452;-1452;-445;-0.00018750572222052677;-0.00037501144444105353;1.9436843165379802;3.3893534348582417
12;0.18532538414001465;0;-1452;-1452;-445;-0.00018750572222052677;-0.00037501144444105353;1.941434247871334;3.391978514969329
13;0.20052862167358398;0;-1452;-1452;-445;-0.00018750572222052677;-0.00018750572222052677;1.9466844080935088;3.3901034577471236
14;0.21586108207702637;0;-1452;-1452;-445;-0.00018750572222052677;-0.00018750572222052677;1.9472469252601703;3.391228492080447
15;0.2325758934020996;0;-1452;-1452;-445;-0.00018750572222052677;-0.00018750572222052677;1.9440593279824212;3.3927285378582113
16;0.2479555606842041;0;-1452;-1452;-445;-0.00018750572222052677;0.0;1.944246833704642;3.3917910092471084
17;0.26311683654785156;0;-1452;-1452;-445;0.0;-0.00018750572222052677;1.9455593737601855;3.3942285836359756
18;0.27841877937316895;0;-1452;-1452;-445;-0.00018750572222052677;-0.00018750572222052677;1.9429342936490983;3.3893534348582417
19;0.2935144901275635;0;-1452;-1452;-445;-0.00018750572222052677;0.0;1.9459343852046267;3.389540940580462
20;0.3088564872741699;0;-1452;-1452;-445;-0.00018750572222052677;-0.00018750572222052677;1.9470594195379498;3.3938535721915346
21;0.32413768768310547;0;-1452;-1452;-445;0.0;-0.00018750572222052677;1.948184453871273;3.3929160435804318
22;0.3395845890045166;0;-1452;-1452;-445;-0.00018750572222052677;-0.00018750572222052677;1.9451843623157445;3.39216602069155
23;0.35487818717956543;0;-1452;-1452;-445;-0.00018750572222052677;-0.00018750572222052677;1.944996856593524;3.393478560747093
24;0.3702075481414795;0;-1452;-1452;-445;-0.00018750572222052677;-0.00018750572222052677;1.9463093966490677;3.3897284463026827
25;0.38538551330566406;0;-1291;-1452;-445;-0.00037501144444105353;-0.00018750572222052677;1.9472469252601703;3.391603503524888
26;0.4005255699157715;0;-1452;-1452;-445;-0.00018750572222052677;-0.00018750572222052677;1.9431217993713188;3.3906659749137855
27;0.4158334732055664;0;-1452;-1452;-445;-0.00018750572222052677;-0.00018750572222052677;1.9446218451490829;3.3917910092471084
28;0.43140077590942383;0;-1452;-1452;-445;-0.00018750572222052677;0.0;1.945371868037965;3.3931035493026522
29;0.4466419219970703;0;-1452;-1452;-445;-0.00018750572222052677;-0.00018750572222052677;1.9463093966490677;3.388040894802698
30;0.46285343170166016;0;-1452;-1452;-445;-0.00018750572222052677;-0.00018750572222052677;1.941434247871334;3.3878533890804774
31;0.4783339500427246;0;-1452;-1452;-445;-0.00018750572222052677;-0.00018750572222052677;1.9412467421491135;3.389540940580462
32;0.4935486316680908;0;-1452;-1452;-445;0.0;0.0;1.9412467421491135;3.3882284005249184
33;0.5088827610015869;0;-1452;-1452;-445;0.0;0.00018750572222052677;1.941434247871334;3.385978331858272
34;0.5239779949188232;0;-1452;-1452;-445;-0.00018750572222052677;-0.00018750572222052677;1.9427467879268778;3.3910409863582265
35;0.5393426418304443;0;-1452;-1452;-445;-0.00037501144444105353;-0.00018750572222052677;1.9444343394268624;3.390478469191565
36;0.5552883148193359;0;-1452;-1452;-445;-0.00018750572222052677;-0.00018750572222052677;1.9425592822046573;3.388415906247139
37;0.5709612369537354;0;-1452;-1452;-445;-0.00037501144444105353;-0.00018750572222052677;1.9408717307046723;3.3886034119693593
38;0.5866987705230713;0;-1452;-1452;-445;-0.00018750572222052677;-0.00018750572222052677;1.9384341563158054;3.388040894802698
39;0.6029093265533447;0;-1452;-1452;-445;0.0;-0.00018750572222052677;1.9419967650379957;3.3897284463026827
40;0.6187701225280762;0;-1452;-1452;-445;-0.00037501144444105353;-0.00037501144444105353;1.9408717307046723;3.388040894802698
41;0.6347618103027344;0;-1452;-1452;-445;-0.00018750572222052677;-0.00018750572222052677;1.9425592822046573;3.389165929136021
42;0.6512110233306885;0;-1452;-1452;-445;-0.00018750572222052677;0.0;1.9427467879268778;3.390478469191565
43;0.6676175594329834;0;-1452;-1452;-445;-0.00018750572222052677;-0.00018750572222052677;1.944996856593524;3.389915952024903
44;0.6838428974151611;0;-1452;-1452;-445;-0.00018750572222052677;0.0;1.9416217535935545;3.3869158604693745
45;0.7001852989196777;0;-1452;-1452;-445;-0.00018750572222052677;-0.00018750572222052677;1.9401217078157904;3.388040894802698
46;0.7188096046447754;0;-1452;-1452;-445;-0.00018750572222052677;0.0;1.9436843165379802;3.388415906247139
47;0.7385730743408203;0;-1452;-1452;-445;-0.00018750572222052677;-0.00018750572222052677;1.9419967650379957;3.388415906247139
48;0.7582778930664062;0;-1452;-1452;-445;-0.00018750572222052677;-0.00018750572222052677;1.9425592822046573;3.390290963469344
49;0.7778487205505371;0;-1452;-1452;-445;-0.00018750572222052677;-0.00018750572222052677;1.9438718222602007;3.389915952024903
50;0.801224946975708;0;-1452;-1452;-445;-0.00018750572222052677;-0.00018750572222052677;1.944246833704642;3.3917910092471084
51;0.820643424987793;0;-1452;-1452;-445;-0.00018750572222052677;-0.00018750572222052677;1.9380591448713644;3.3910409863582265
52;0.8372514247894287;0;-1452;-1452;-445;-0.00018750572222052677;-0.00037501144444105353;1.9419967650379957;3.3901034577471236
53;0.8525829315185547;0;-1291;-1452;-445;-0.00018750572222052677;-0.00037501144444105353;1.9412467421491135;3.389165929136021
54;0.8679921627044678;0;-1452;-1452;-445;-0.00018750572222052677;-0.00018750572222052677;1.9438718222602007;3.3910409863582265
55;0.8836843967437744;0;-1452;-1452;-445;-0.00018750572222052677;-0.00018750572222052677;1.94349681081576;3.388415906247139
56;0.8991334438323975;0;-1452;-1452;-445;-0.00018750572222052677;-0.00018750572222052677;1.9446218451490829;3.3917910092471084
57;0.9143571853637695;0;-1291;-1452;-445;-0.00018750572222052677;-0.00018750572222052677;1.9448093508713034;3.385603320413831
58;0.9295535087585449;0;-1452;-1452;-445;-0.00018750572222052677;-0.00018750572222052677;1.941434247871334;3.391603503524888
59;0.945077657699585;0;-1452;-1452;-445;-0.00018750572222052677;-0.00018750572222052677;1.941434247871334;3.387290871913816
60;0.9604511260986328;0;-1452;-1452;-445;-0.00037501144444105353;-0.00018750572222052677;1.9436843165379802;3.3852283089693898
61;0.9757966995239258;0;-1452;-1452;-445;-0.00018750572222052677;-0.00037501144444105353;1.941434247871334;3.3893534348582417
62;0.9913043975830078;0;-1452;-1452;-445;-0.00018750572222052677;-0.00018750572222052677;1.9419967650379957;3.390478469191565
63;1.0069174766540527;0;-1452;-1452;-445;-0.00037501144444105353;-0.00018750572222052677;1.9408717307046723;3.386728354747154
64;1.022031307220459;0;-1452;-1452;-445;0.0;0.0;1.9395591906491287;3.3857908261360516
65;1.0373291969299316;0;-1452;-1452;-445;-0.00037501144444105353;-0.00018750572222052677;1.9451843623157445;3.3882284005249184
66;1.0526587963104248;0;-1452;-1452;-445;0.0;-0.00018750572222052677;1.9431217993713188;3.387290871913816
67;1.0679831504821777;0;-1452;-1452;-445;-0.00018750572222052677;0.0;1.940309213538011;3.3889784234138007
68;1.0833740234375;0;-1452;-1452;-445;-0.00018750572222052677;-0.00018750572222052677;1.9431217993713188;3.38879091769158
69;1.0988976955413818;0;-1452;-1452;-445;0.0;-0.00037501144444105353;1.9416217535935545;3.3882284005249184
70;1.114391565322876;0;-1452;-1452;-445;-0.00037501144444105353;-0.00018750572222052677;1.9425592822046573;3.3869158604693745
71;1.1299388408660889;0;-1452;-1452;-445;-0.00018750572222052677;-0.00037501144444105353;1.9406842249824519;3.387103366191595
72;1.1455020904541016;0;-1452;-1452;-445;-0.00018750572222052677;-0.00018750572222052677;1.9404967192602314;3.38879091769158
73;1.160834550857544;0;-1452;-1452;-445;-0.00018750572222052677;-0.00018750572222052677;1.9406842249824519;3.3886034119693593
74;1.1764411926269531;0;-1452;-1452;-445;-0.00018750572222052677;-0.00018750572222052677;1.944996856593524;3.388415906247139
75;1.1918952465057373;0;-1452;-1452;-445;-0.00018750572222052677;0.0;1.945371868037965;3.389540940580462
76;1.2074000835418701;0;-1452;-1452;-445;-0.00018750572222052677;-0.00018750572222052677;1.941059236426893;3.3878533890804774
77;1.222998857498169;0;-1452;-1452;-445;-0.00018750572222052677;-0.00018750572222052677;1.940309213538011;3.3886034119693593
78;1.2380690574645996;0;-1452;-1452;-445;-0.00018750572222052677;0.0;1.9408717307046723;3.3874783776360364
79;1.253319263458252;0;-1452;-1452;-445;-0.00018750572222052677;0.0;1.944996856593524;3.386728354747154
80;1.26883864402771;0;-1452;-1452;-445;-0.00018750572222052677;-0.00018750572222052677;1.9440593279824212;3.38879091769158
81;1.2840843200683594;0;-1452;-1452;-445;-0.00018750572222052677;-0.00018750572222052677;1.9399342020935697;3.389165929136021
82;1.2992916107177734;0;-1291;-1452;-445;-0.00018750572222052677;-0.00018750572222052677;1.9446218451490829;3.387290871913816
83;1.3146114349365234;0;-1452;-1452;-445;-0.00018750572222052677;-0.00018750572222052677;1.9391841792046876;3.3889784234138007
84;1.329695463180542;0;-1452;-1452;-445;-0.00018750572222052677;-0.00037501144444105353;1.940309213538011;3.389915952024903
85;1.3449420928955078;0;-1452;-1452;-445;-0.00018750572222052677;-0.00018750572222052677;1.9438718222602007;3.3889784234138007
86;1.3600714206695557;0;-1452;-1452;-445;-0.00018750572222052677;-0.00018750572222052677;1.9419967650379957;3.388040894802698
87;1.3755781650543213;0;-1452;-1452;-445;-0.00037501144444105353;-0.00018750572222052677;1.9393716849269083;3.387290871913816
88;1.3906619548797607;0;-1452;-1452;-445;-0.00018750572222052677;-0.00018750572222052677;1.9433093050935393;3.387103366191595
89;1.405858039855957;0;-1452;-1452;-445;-0.00018750572222052677;-0.00018750572222052677;1.940309213538011;3.388415906247139
90;1.4210529327392578;0;-1452;-1452;-445;-0.00018750572222052677;-0.00018750572222052677;1.9416217535935545;3.38879091769158
91;1.4362847805023193;0;-1452;-1452;-445;-0.00018750572222052677;-0.00018750572222052677;1.9438718222602007;3.3893534348582417
92;1.4515821933746338;0;-1291;-1452;-445;-0.00018750572222052677;-0.00018750572222052677;1.938621662038026;3.391603503524888
93;1.4668235778808594;0;-1452;-1452;-445;-0.00018750572222052677;0.0;1.9412467421491135;3.3865408490249336
94;1.4819607734680176;0;-1452;-1452;-445;-0.00018750572222052677;-0.00018750572222052677;1.9373091219824825;3.3852283089693898
95;1.4973466396331787;0;-1452;-1452;-445;-0.00018750572222052677;0.0;1.9440593279824212;3.38879091769158
96;1.5126829147338867;0;-1452;-1452;-445;-0.00018750572222052677;-0.00018750572222052677;1.9504345225379192;3.386728354747154
97;1.5298612117767334;0;-1452;-1452;-445;-0.00018750572222052677;-0.00018750572222052677;1.9352465590380565;3.380165654469436
98;1.5468833446502686;0;-1291;-1452;-445;-0.00037501144444105353;-0.00018750572222052677;1.9444343394268624;3.3992912381359295
99;1.5639853477478027;0;-1291;-1452;-445;-0.00018750572222052677;-0.00018750572222052677;1.938246650593585;3.3829782403027435
100;1.581094741821289;0;-1452;-1452;-445;-0.00018750572222052677;0.0;1.947809442426832;3.386353343302713
101;1.5984468460083008;0;-1452;-1452;-445;-0.00018750572222052677;-0.00018750572222052677;1.9455593737601855;3.3951661122470775
102;1.6154284477233887;0;-1452;-1452;-445;-0.00018750572222052677;0.0;1.9448093508713034;3.3901034577471236
103;1.6323654651641846;0;-1452;-1452;-445;-0.00018750572222052677;-0.00018750572222052677;1.9461218909268472;3.39216602069155
104;1.649439811706543;0;-1452;-1452;-445;0.0;-0.00018750572222052677;1.9367466048158208;3.3927285378582113
105;1.6662898063659668;0;-1452;-1452;-445;-0.00018750572222052677;-0.00018750572222052677;1.947809442426832;3.391603503524888
106;1.6839261054992676;0;-1291;-1452;-445;-0.00018750572222052677;-0.00018750572222052677;1.945371868037965;3.3914159978026674
107;1.701211929321289;0;-1452;-1452;-445;0.0;-0.00018750572222052677;1.948934476760155;3.391228492080447
108;1.7184984683990479;0;-1452;-1452;-445;-0.00018750572222052677;-0.00018750572222052677;1.9466844080935088;3.3927285378582113
109;1.7354848384857178;0;-1452;-1452;-445;-0.00018750572222052677;-0.00037501144444105353;1.9444343394268624;3.3914159978026674
110;1.7532267570495605;0;-1291;-1452;-445;-0.00018750572222052677;-0.00018750572222052677;1.9500595110934782;3.3914159978026674
111;1.7703745365142822;0;-1452;-1452;-445;-0.00018750572222052677;-0.00018750572222052677;1.9463093966490677;3.3936660664693137
112;1.7877235412597656;0;-1452;-1452;-445;-0.00018750572222052677;-0.00018750572222052677;1.9500595110934782;3.3923535264137703
113;1.8050198554992676;0;-1452;-1452;-445;0.0;-0.00018750572222052677;1.9444343394268624;3.3932910550248727
114;1.8222055435180664;0;-1452;-1452;-445;-0.00018750572222052677;-0.00018750572222052677;1.9468719138157293;3.3927285378582113
115;1.8391685485839844;0;-1452;-1452;-445;0.0;-0.00018750572222052677;1.9476219367046115;3.390853480636006
116;1.8562281131744385;0;-1291;-1452;-445;-0.00018750572222052677;0.0;1.9459343852046267;3.39216602069155
117;1.873521089553833;0;-1452;-1452;-445;-0.00018750572222052677;-0.00018750572222052677;1.9438718222602007;3.391978514969329
118;1.8905255794525146;0;-1452;-1452;-445;-0.00018750572222052677;-0.00037501144444105353;1.9438718222602007;3.390290963469344
119;1.9078774452209473;0;-1452;-1452;-445;-0.00018750572222052677;0.0;1.9451843623157445;3.3931035493026522
120;1.9252021312713623;0;-1452;-1452;-445;-0.00018750572222052677;-0.00018750572222052677;1.9519345683156835;3.391228492080447
121;1.942507266998291;0;-1452;-1452;-445;-0.00018750572222052677;0.0;1.938621662038026;3.3897284463026827
122;1.959479808807373;0;-1452;-1452;-445;-0.00018750572222052677;0.0;1.9485594653157141;3.392541032135991
123;1.976898193359375;0;-1452;-1452;-445;0.0;-0.00018750572222052677;1.9466844080935088;3.394603595080416
124;1.9944303035736084;0;-1452;-1452;-445;-0.00018750572222052677;-0.00018750572222052677;1.9459343852046267;3.391603503524888
125;2.011751651763916;0;-1452;-1452;-445;0.0;-0.00018750572222052677;1.9455593737601855;3.3923535264137703
126;2.0288543701171875;0;-1452;-1452;-445;-0.00018750572222052677;0.0;1.9504345225379192;3.3923535264137703
127;2.046356439590454;0;-1452;-1452;-445;-0.00037501144444105353;0.0;1.9455593737601855;3.3917910092471084
128;2.063594341278076;0;-1452;-1452;-445;-0.00018750572222052677;-0.00018750572222052677;1.944996856593524;3.3914159978026674
129;2.080878973007202;0;-1452;-1452;-445;-0.00018750572222052677;-0.00018750572222052677;1.9483719595934936;3.3923535264137703
130;2.0981357097625732;0;-1452;-1452;-445;-0.00018750572222052677;-0.00018750572222052677;1.947809442426832;3.39216602069155
131;2.115401268005371;0;-1452;-1452;-445;0.0;-0.00018750572222052677;1.9468719138157293;3.3923535264137703
132;2.132683038711548;0;-1452;-1452;-445;-0.00018750572222052677;-0.00018750572222052677;1.9485594653157141;3.3901034577471236
133;2.1499781608581543;0;-1452;-1452;-445;0.0;-0.00018750572222052677;1.94349681081576;3.3947911008026366
134;2.1672263145446777;0;-1452;-1452;-445;-0.00018750572222052677;-0.00018750572222052677;1.9468719138157293;3.394041077913755
135;2.184366464614868;0;-1452;-1452;-445;-0.00018750572222052677;-0.00018750572222052677;1.9461218909268472;3.3923535264137703
136;2.201946496963501;0;-1452;-1452;-445;-0.00018750572222052677;-0.00018750572222052677;1.9472469252601703;3.3917910092471084
137;2.218933343887329;0;-1452;-1452;-445;-0.00018750572222052677;-0.00018750572222052677;1.9455593737601855;3.3906659749137855
138;2.2362887859344482;0;-1452;-1452;-445;0.0;0.0;1.9466844080935088;3.3927285378582113
139;2.2539355754852295;0;-1452;-1452;-445;0.0;0.0;1.947809442426832;3.395541123691519
140;2.271178960800171;0;-1452;-1452;-445;-0.00018750572222052677;0.0;1.944996856593524;3.390853480636006
141;2.288177728652954;0;-1452;-1452;-445;-0.00018750572222052677;-0.00018750572222052677;1.9448093508713034;3.3942285836359756
142;2.305168628692627;0;-1452;-1452;-445;-0.00018750572222052677;0.0;1.944996856593524;3.3901034577471236
143;2.3228588104248047;0;-1452;-1452;-445;-0.00018750572222052677;0.0;1.9466844080935088;3.393478560747093
144;2.3401458263397217;0;-1452;-1452;-445;-0.00018750572222052677;-0.00018750572222052677;1.949684499649037;3.3942285836359756
145;2.357407331466675;0;-1452;-1452;-445;-0.00018750572222052677;-0.00037501144444105353;1.9444343394268624;3.392541032135991
146;2.3747267723083496;0;-1452;-1452;-445;0.0;-0.00018750572222052677;1.9461218909268472;3.3929160435804318
147;2.3919897079467773;0;-1291;-1452;-445;-0.00018750572222052677;0.0;1.9451843623157445;3.391228492080447
148;2.4097023010253906;0;-1452;-1452;-445;-0.00018750572222052677;-0.00018750572222052677;1.948934476760155;3.389540940580462
149;2.4271175861358643;0;-1452;-1452;-445;-0.00018750572222052677;-0.00018750572222052677;1.9466844080935088;3.3932910550248727
150;2.444363832473755;0;-1452;-1452;-445;-0.00018750572222052677;-0.00018750572222052677;1.9397466963713492;3.392541032135991
151;2.4616851806640625;0;-1452;-1452;-445;-0.00018750572222052677;-0.00018750572222052677;1.9451843623157445;3.391978514969329
152;2.4790525436401367;0;-1452;-1452;-445;-0.00018750572222052677;-0.00018750572222052677;1.9436843165379802;3.3951661122470775
153;2.496119260787964;0;-1452;-1452;-445;0.0;-0.00018750572222052677;1.944996856593524;3.3964786523026214
154;2.5130929946899414;0;-1452;-1452;-445;-0.00018750572222052677;-0.00018750572222052677;1.944996856593524;3.3910409863582265
155;2.5304384231567383;0;-1452;-1452;-445;-0.00018750572222052677;0.0;1.947434430982391;3.3927285378582113
156;2.5479729175567627;0;-1452;-1452;-445;-0.00018750572222052677;0.0;1.9485594653157141;3.394041077913755
157;2.5652835369110107;0;-1452;-1452;-445;-0.00018750572222052677;0.0;1.947434430982391;3.3938535721915346
158;2.5825653076171875;0;-1452;-1452;-445;-0.00018750572222052677;-0.00018750572222052677;1.9459343852046267;3.3889784234138007
159;2.5995984077453613;0;-1452;-1452;-445;-0.00037501144444105353;-0.00018750572222052677;1.9361840876491594;3.3917910092471084
160;2.616762399673462;0;-1452;-1452;-445;-0.00037501144444105353;-0.00018750572222052677;1.9448093508713034;3.394041077913755
161;2.634105920791626;0;-1452;-1452;-445;-0.00018750572222052677;-0.00018750572222052677;1.945371868037965;3.3947911008026366
162;2.651369333267212;0;-1452;-1452;-445;-0.00018750572222052677;-0.00018750572222052677;1.9483719595934936;3.390478469191565
163;2.6686015129089355;0;-1452;-1452;-445;0.0;0.0;1.9448093508713034;3.3932910550248727
164;2.685518741607666;0;-1452;-1452;-445;0.0;0.0;1.9483719595934936;3.391603503524888
165;2.7029764652252197;0;-1452;-1452;-445;0.0;-0.00018750572222052677;1.9491219824823758;3.3927285378582113
