;Time;Thrust;Pressure1;Pressure2;Weight;Current;Voltage;Battery12V;Battery24V
0;0.0;21.623124688533814;-7.162400000000001;-3.2087000000000003;0.42565816831486836;-0.00018750572222052677;0.0;8.281692737205114;18.487304812768947
1;0.017511367797851562;21.623124688533814;-7.162400000000001;-3.2087000000000003;0.42565816831486836;-0.00018750572222052677;-0.00018750572222052677;8.284887834711752;18.47299812616352
2;0.034926652908325195;21.623124688533814;-8.1284;-3.2087000000000003;0.42565816831486836;-0.00018750572222052677;-0.00018750572222052677;8.276900090945158;18.479129563280132
3;0.05234265327453613;21.623124688533814;-7.162400000000001;-3.2087000000000003;0.42565816831486836;0.0;-0.00018750572222052677;8.292875578478347;18.504677217932677
4;0.06931924819946289;21.623124688533814;-8.1284;-3.2087000000000003;0.42565816831486836;-0.00018750572222052677;0.0;8.265717249671926;18.480151469466232
5;0.08639812469482422;21.623124688533814;-7.162400000000001;-3.2087000000000003;0.42565816831486836;-0.00018750572222052677;-0.00018750572222052677;8.296070675984986;18.488326718955047
6;0.10361194610595703;21.623124688533814;-8.1284;-3.2087000000000003;0.42565816831486836;-0.00018750572222052677;-0.00018750572222052677;8.292076804101686;18.486282906582844
7;0.1204679012298584;21.623124688533814;-8.1284;-3.2087000000000003;0.42565816831486836;0.0;-0.00018750572222052677;8.278497639698477;18.477085750907925
8;0.13799357414245605;21.623124688533814;-7.162400000000001;-3.2087000000000003;0.42565816831486836;-0.00018750572222052677;-0.00018750572222052677;8.282491511581775;18.48934862514115
9;0.15526771545410156;21.623124688533814;-8.1284;-3.2087000000000003;0.42565816831486836;-0.00018750572222052677;-0.00018750572222052677;8.284887834711752;18.487304812768947
10;0.1727445125579834;21.623124688533814;-7.162400000000001;-3.2087000000000003;0.42565816831486836;-0.00018750572222052677;-0.00018750572222052677;8.283290285958433;18.50058959318827
11;0.19015955924987793;20.41102922268392;-8.1284;-3.2087000000000003;0.42565816831486836;-0.00018750572222052677;0.0;8.292875578478347;18.48423909421064
12;0.2073049545288086;19.206415827610872;-8.1284;-3.2087000000000003;0.42565816831486836;-0.00018750572222052677;-0.00018750572222052677;8.277698865321817;18.469932407605214
13;0.2245481014251709;19.206415827610872;-8.1284;-3.2087000000000003;0.42565816831486836;-0.00018750572222052677;0.0;8.283290285958433;18.476063844721825
14;0.24202656745910645;19.206415827610872;-8.1284;-3.2087000000000003;0.42565816831486836;-0.00018750572222052677;-0.00037501144444105353;8.285686609088412;18.430078066347242
15;0.2591269016265869;19.206415827610872;-7.162400000000001;-3.2087000000000003;0.42565816831486836;-0.00018750572222052677;-0.00018750572222052677;8.284887834711752;18.47299812616352
16;0.27658939361572266;19.206415827610872;-8.1284;-3.2087000000000003;0.42565816831486836;-0.00018750572222052677;-0.00018750572222052677;8.277698865321817;18.47504193853572
17;0.2939136028289795;19.206415827610872;-7.162400000000001;-3.2087000000000003;0.42565816831486836;-0.00018750572222052677;-0.00018750572222052677;8.28728415784173;18.49037053132725
18;0.31109142303466797;19.206415827610872;-8.1284;-3.2087000000000003;0.42565816831486836;-0.00018750572222052677;-0.00018750572222052677;8.293674352855007;18.48321718802454
19;0.3285548686981201;19.206415827610872;-8.1284;-3.2087000000000003;0.42565816831486836;-0.00018750572222052677;-0.00018750572222052677;8.278497639698477;18.480151469466232
20;0.3461451530456543;19.206415827610872;-7.162400000000001;-3.2087000000000003;0.42565816831486836;0.0;0.0;8.288881706595049;18.47504193853572
21;0.3633725643157959;19.206415827610872;-8.1284;-3.2087000000000003;0.42565816831486836;-0.00018750572222052677;-0.00018750572222052677;8.277698865321817;18.492414343699455
22;0.3808474540710449;19.206415827610872;-8.1284;-3.2087000000000003;0.42565816831486836;0.0;-0.00018750572222052677;8.297668224738304;18.487304812768947
23;0.3977982997894287;19.206415827610872;-7.162400000000001;-3.2087000000000003;0.42565816831486836;-0.00018750572222052677;-0.00018750572222052677;8.268113572801903;18.486282906582844
24;0.41507887840270996;19.206415827610872;-7.162400000000001;-3.2087000000000003;0.42565816831486836;-0.00018750572222052677;-0.00037501144444105353;8.279296414075137;18.48321718802454
25;0.43253159523010254;19.206415827610872;-7.162400000000001;-3.2087000000000003;0.42565816831486836;-0.00018750572222052677;-0.00018750572222052677;8.28808293221839;18.491392437513355
26;0.4500434398651123;19.206415827610872;-7.162400000000001;-3.2087000000000003;0.42565816831486836;-0.00037501144444105353;-0.00018750572222052677;8.280893962828454;18.47402003234962
27;0.4673013687133789;19.206415827610872;-8.1284;-3.2087000000000003;0.42565816831486836;-0.00018750572222052677;-0.00018750572222052677;8.28728415784173;18.476063844721825
28;0.4849834442138672;19.206415827610872;-8.1284;-3.2087000000000003;0.42565816831486836;-0.00018750572222052677;-0.00018750572222052677;8.300064547868283;18.47504193853572
29;0.5024843215942383;19.206415827610872;-8.1284;-3.2087000000000003;0.42565816831486836;-0.00018750572222052677;-0.00018750572222052677;8.292076804101686;18.471976219977417
30;0.5200021266937256;19.206415827610872;-8.1284;-3.2087000000000003;0.42565816831486836;-0.00018750572222052677;-0.00018750572222052677;8.282491511581775;18.49956768700217
31;0.5372686386108398;19.206415827610872;-8.1284;-3.2087000000000003;0.42565816831486836;-0.00037501144444105353;-0.00018750572222052677;8.285686609088412;18.487304812768947
32;0.5541205406188965;19.206415827610872;-8.1284;-3.2087000000000003;0.42565816831486836;-0.00018750572222052677;-0.00018750572222052677;8.280893962828454;18.49343624988556
33;0.5716204643249512;19.206415827610872;-7.162400000000001;-3.2087000000000003;0.42565816831486836;0.0;-0.00018750572222052677;8.28808293221839;18.486282906582844
34;0.5890626907348633;19.206415827610872;-8.1284;-3.2087000000000003;0.42565816831486836;-0.00018750572222052677;-0.00018750572222052677;8.296869450361644;18.48321718802454
35;0.6065404415130615;19.206415827610872;-7.162400000000001;-3.2087000000000003;0.42565816831486836;-0.00018750572222052677;-0.00018750572222052677;8.238558920865504;18.477085750907925
36;0.6237044334411621;19.206415827610872;-8.1284;-3.2087000000000003;0.42565816831486836;-0.00018750572222052677;-0.00037501144444105353;8.280095188451796;18.47299812616352
37;0.6411516666412354;19.206415827610872;-7.162400000000001;-3.2087000000000003;0.42565816831486836;-0.00037501144444105353;0.0;8.284887834711752;18.46891050141911
38;0.6583974361419678;19.206415827610872;-7.162400000000001;-3.2087000000000003;0.42565816831486836;-0.00037501144444105353;-0.00018750572222052677;8.297668224738304;18.49037053132725
39;0.6758677959442139;19.206415827610872;-7.162400000000001;-3.2087000000000003;0.42565816831486836;-0.00018750572222052677;-0.00018750572222052677;8.293674352855007;18.481173375652336
40;0.6937828063964844;19.206415827610872;-8.1284;-3.2087000000000003;0.42565816831486836;-0.00018750572222052677;-0.00018750572222052677;8.285686609088412;18.49956768700217
41;0.7112681865692139;19.206415827610872;-8.1284;-3.2087000000000003;0.42565816831486836;-0.00018750572222052677;-0.00018750572222052677;8.282491511581775;18.491392437513355
42;0.7285857200622559;19.206415827610872;-8.1284;-3.2087000000000003;0.42565816831486836;0.0;-0.00018750572222052677;8.28808293221839;18.481173375652336
43;0.7460741996765137;19.206415827610872;-7.162400000000001;-3.2087000000000003;0.42565816831486836;0.0;-0.00018750572222052677;8.278497639698477;18.505699124118777
44;0.7635235786437988;19.206415827610872;-8.1284;-3.2087000000000003;0.42565816831486836;-0.00037501144444105353;-0.00018750572222052677;8.280893962828454;18.481173375652336
45;0.7811496257781982;19.206415827610872;-7.162400000000001;-3.2087000000000003;0.42565816831486836;-0.00018750572222052677;-0.00018750572222052677;8.27450376781518;18.481173375652336
46;0.798628568649292;19.206415827610872;-7.162400000000001;-3.2087000000000003;0.42565816831486836;-0.00018750572222052677;-0.00018750572222052677;8.281692737205114;18.479129563280132
47;0.8158872127532959;19.206415827610872;-7.162400000000001;-3.2087000000000003;0.42565816831486836;-0.00018750572222052677;0.0;8.300863322244942;18.48526100039674
48;0.8333051204681396;19.206415827610872;-8.1284;-3.2087000000000003;0.42565816831486836;-0.00037501144444105353;0.0;8.290479255348368;18.488326718955047
49;0.8510458469390869;16.789706966687927;-8.1284;-3.2087000000000003;0.42565816831486836;-0.00018750572222052677;-0.00018750572222052677;8.285686609088412;18.47402003234962
50;0.8685410022735596;16.789706966687927;-8.1284;-3.2087000000000003;0.42565816831486836;-0.00018750572222052677;-0.00018750572222052677;8.277698865321817;18.47810765709403
51;0.8859167098999023;16.789706966687927;-8.1284;-3.2087000000000003;0.42565816831486836;-0.00018750572222052677;0.0;8.273704993438521;18.486282906582844
52;0.9031367301940918;16.789706966687927;-7.162400000000001;-3.2087000000000003;0.42565816831486836;-0.00018750572222052677;0.0;8.286485383465072;18.492414343699455
53;0.9208500385284424;16.789706966687927;-7.162400000000001;-3.2087000000000003;0.42565816831486836;0.0;0.0;8.282491511581775;18.46788859523301
54;0.9384942054748535;16.789706966687927;-8.1284;-3.2087000000000003;0.42565816831486836;-0.00018750572222052677;0.0;8.279296414075137;18.47810765709403
55;0.9554750919342041;16.789706966687927;-8.1284;-3.2087000000000003;0.42565816831486836;-0.00018750572222052677;-0.00018750572222052677;8.300863322244942;18.48423909421064
56;0.972475528717041;16.789706966687927;-8.1284;-3.2087000000000003;0.42565816831486836;-0.00037501144444105353;-0.00018750572222052677;8.291278029725028;18.476063844721825
57;0.989816427230835;16.789706966687927;-8.1284;-3.2087000000000003;0.42565816831486836;-0.00018750572222052677;-0.00018750572222052677;8.280095188451796;18.47504193853572
58;1.007089614868164;16.789706966687927;-8.1284;-3.2087000000000003;0.42565816831486836;-0.00018750572222052677;-0.00018750572222052677;8.281692737205114;18.48526100039674
59;1.0243449211120605;16.789706966687927;-7.162400000000001;-3.2087000000000003;0.42565816831486836;-0.00018750572222052677;-0.00037501144444105353;8.280095188451796;18.49037053132725
60;1.0418117046356201;16.789706966687927;-8.1284;-3.2087000000000003;0.42565816831486836;-0.00018750572222052677;0.0;8.286485383465072;18.488326718955047
61;1.059762716293335;16.789706966687927;-7.162400000000001;-3.2087000000000003;0.42565816831486836;-0.00018750572222052677;-0.00037501144444105353;8.292076804101686;18.486282906582844
62;1.077141523361206;16.789706966687927;-7.162400000000001;-3.2087000000000003;0.42565816831486836;-0.00018750572222052677;-0.00018750572222052677;8.2761013165685;18.481173375652336
63;1.0943245887756348;18.001802432537826;-8.1284;-3.2087000000000003;0.42565816831486836;0.0;0.0;8.280893962828454;18.47402003234962
64;1.111649990081787;16.789706966687927;-8.1284;-3.2087000000000003;0.42565816831486836;-0.00018750572222052677;-0.00018750572222052677;8.280095188451796;18.441319034394358
65;1.1286957263946533;16.789706966687927;-8.1284;-3.2087000000000003;0.42565816831486836;-0.00018750572222052677;0.0;8.294473127231665;18.48321718802454
66;1.1459298133850098;16.789706966687927;-8.1284;-3.2087000000000003;0.42565816831486836;-0.00018750572222052677;0.0;8.284887834711752;18.470954313791317
67;1.1634118556976318;16.789706966687927;-7.162400000000001;-3.2087000000000003;0.42565816831486836;0.0;0.0;8.294473127231665;18.464822876674702
68;1.1808223724365234;16.789706966687927;-7.162400000000001;-3.2087000000000003;0.42565816831486836;-0.00018750572222052677;-0.00018750572222052677;8.281692737205114;18.481173375652336
69;1.1980443000793457;19.206415827610872;-8.1284;-3.2087000000000003;0.42565816831486836;-0.00018750572222052677;-0.00018750572222052677;8.279296414075137;18.498545780816066
70;1.2155203819274902;19.206415827610872;-7.162400000000001;-3.2087000000000003;0.42565816831486836;-0.00018750572222052677;-0.00018750572222052677;8.276900090945158;18.481173375652336
71;1.233137607574463;19.206415827610872;-8.1284;-3.2087000000000003;0.42565816831486836;-0.00018750572222052677;-0.00018750572222052677;8.291278029725028;18.487304812768947
72;1.250676155090332;19.206415827610872;-8.1284;-3.2087000000000003;0.42565816831486836;0.0;-0.00018750572222052677;8.27530254219184;18.469932407605214
73;1.2681353092193604;18.001802432537826;-8.1284;-3.2087000000000003;0.42565816831486836;0.0;-0.00018750572222052677;8.278497639698477;18.47810765709403
74;1.2858476638793945;19.206415827610872;-7.162400000000001;-3.2087000000000003;0.42565816831486836;-0.00018750572222052677;0.0;8.291278029725028;18.479129563280132
75;1.3031878471374512;19.206415827610872;-7.162400000000001;-3.2087000000000003;0.42565816831486836;-0.00018750572222052677;-0.00018750572222052677;8.300863322244942;18.48934862514115
76;1.320563793182373;19.206415827610872;-8.1284;-3.2087000000000003;0.42565816831486836;-0.00018750572222052677;0.0;8.272906219061861;18.481173375652336
77;1.3379662036895752;19.206415827610872;-8.1284;-3.2087000000000003;0.42565816831486836;-0.00018750572222052677;-0.00018750572222052677;8.273704993438521;18.46891050141911
78;1.3551435470581055;19.206415827610872;-8.1284;-3.2087000000000003;0.42565816831486836;-0.00018750572222052677;-0.00037501144444105353;8.285686609088412;18.479129563280132
79;1.3725695610046387;19.206415827610872;-7.162400000000001;-3.2087000000000003;0.42565816831486836;-0.00018750572222052677;-0.00018750572222052677;8.283290285958433;18.49037053132725
80;1.3900229930877686;19.206415827610872;-7.162400000000001;-3.2087000000000003;0.42565816831486836;-0.00018750572222052677;-0.00018750572222052677;8.278497639698477;18.496501968443866
81;1.407454013824463;19.206415827610872;-8.1284;-3.2087000000000003;0.42565816831486836;-0.00018750572222052677;0.0;8.282491511581775;18.48321718802454
82;1.424832820892334;19.206415827610872;-8.1284;-3.2087000000000003;0.42565816831486836;0.0;0.0;8.284887834711752;18.476063844721825
83;1.4422824382781982;19.206415827610872;-8.1284;-3.2087000000000003;0.42565816831486836;-0.00018750572222052677;0.0;8.280095188451796;18.482195281838436
84;1.4596786499023438;19.206415827610872;-7.162400000000001;-3.2087000000000003;0.42565816831486836;-0.00018750572222052677;-0.00018750572222052677;8.272107444685203;18.48934862514115
85;1.4771854877471924;19.206415827610872;-8.1284;-3.2087000000000003;0.42565816831486836;0.0;0.0;8.27530254219184;18.482195281838436
86;1.4948086738586426;19.206415827610872;-8.1284;-3.2087000000000003;0.42565816831486836;-0.00018750572222052677;0.0;8.272906219061861;18.486282906582844
87;1.5121102333068848;19.206415827610872;-8.1284;-3.2087000000000003;0.42565816831486836;-0.00018750572222052677;-0.00037501144444105353;8.299265773491623;18.476063844721825
88;1.5295355319976807;19.206415827610872;-8.1284;-3.2087000000000003;0.42565816831486836;-0.00018750572222052677;-0.00018750572222052677;8.276900090945158;18.482195281838436
89;1.5469396114349365;19.206415827610872;-8.1284;-3.2087000000000003;0.42565816831486836;-0.00018750572222052677;-0.00018750572222052677;8.283290285958433;18.47810765709403
90;1.5648221969604492;19.206415827610872;-7.162400000000001;-3.2087000000000003;0.42565816831486836;0.0;0.0;8.28808293221839;18.49445815607166
91;1.581740379333496;19.206415827610872;-7.162400000000001;-3.2087000000000003;0.42565816831486836;-0.00018750572222052677;-0.00018750572222052677;8.297668224738304;18.497523874629966
92;1.599161148071289;19.206415827610872;-7.162400000000001;-3.2087000000000003;0.42565816831486836;-0.00018750572222052677;-0.00018750572222052677;8.276900090945158;18.49956768700217
93;1.6175241470336914;19.206415827610872;-8.1284;-3.2087000000000003;0.42565816831486836;-0.00018750572222052677;-0.00018750572222052677;8.320832681661427;18.455625720999787
94;1.6350140571594238;19.206415827610872;-8.1284;-3.2087000000000003;0.42565816831486836;-0.00018750572222052677;0.0;8.260924603411969;18.436209503463854
95;1.6553237438201904;19.206415827610872;-8.1284;-3.2087000000000003;0.42565816831486836;0.0;-0.00018750572222052677;8.235363823358867;18.45153809625538
96;1.6727325916290283;19.206415827610872;-7.162400000000001;-3.2087000000000003;0.42565816831486836;-0.00018750572222052677;0.0;8.27530254219184;18.450516190069276
97;1.689690113067627;19.206415827610872;-7.162400000000001;-3.2087000000000003;0.42565816831486836;-0.00018750572222052677;-0.00018750572222052677;8.264918475295266;18.449494283883176
98;1.7067821025848389;19.206415827610872;-8.1284;-3.2087000000000003;0.42565816831486836;0.0;-0.00018750572222052677;8.248942987762078;18.482195281838436
99;1.7239658832550049;19.206415827610872;-8.1284;-3.2087000000000003;0.42565816831486836;-0.00037501144444105353;-0.00037501144444105353;8.292076804101686;18.498545780816066
100;1.741387128829956;19.206415827610872;-8.1284;-3.2087000000000003;0.42565816831486836;-0.00018750572222052677;-0.00018750572222052677;8.294473127231665;18.49548006225776
101;1.7588427066802979;19.206415827610872;-7.162400000000001;-3.2087000000000003;0.42565816831486836;-0.00018750572222052677;0.0;8.276900090945158;18.49956768700217
102;1.7761266231536865;19.206415827610872;-7.162400000000001;-3.2087000000000003;0.42565816831486836;-0.00018750572222052677;-0.00018750572222052677;8.307253517258216;18.462779064302502
103;1.79437255859375;19.206415827610872;-8.1284;-3.2087000000000003;0.42565816831486836;-0.00018750572222052677;-0.00018750572222052677;8.258528280281991;18.479129563280132
104;1.811967372894287;19.206415827610872;-7.162400000000001;-3.2087000000000003;0.42565816831486836;-0.00018750572222052677;0.0;8.280893962828454;18.48321718802454
105;1.8294720649719238;19.206415827610872;-7.162400000000001;-3.2087000000000003;0.42565816831486836;-0.00018750572222052677;-0.00018750572222052677;8.271308670308542;18.477085750907925
106;1.8467190265655518;19.206415827610872;-8.1284;-3.2087000000000003;0.42565816831486836;-0.00018750572222052677;-0.00018750572222052677;8.288881706595049;18.486282906582844
107;1.8639233112335205;19.206415827610872;-8.1284;-3.2087000000000003;0.42565816831486836;-0.00018750572222052677;-0.00018750572222052677;8.276900090945158;18.497523874629966
108;1.8811023235321045;19.206415827610872;-7.162400000000001;-3.2087000000000003;0.42565816831486836;0.0;0.0;8.277698865321817;18.47402003234962
109;1.8986880779266357;19.206415827610872;-7.162400000000001;-3.2087000000000003;0.42565816831486836;-0.00037501144444105353;0.0;8.277698865321817;18.482195281838436
110;1.9159877300262451;19.206415827610872;-7.162400000000001;-3.2087000000000003;0.42565816831486836;0.0;-0.00018750572222052677;8.283290285958433;18.492414343699455
111;1.9334523677825928;19.206415827610872;-7.162400000000001;-3.2087000000000003;0.42565816831486836;-0.00018750572222052677;-0.00018750572222052677;8.279296414075137;18.47299812616352
112;1.9510977268218994;19.206415827610872;-8.1284;-3.2087000000000003;0.42565816831486836;-0.00018750572222052677;-0.00018750572222052677;8.280893962828454;18.46788859523301
113;1.968811273574829;19.206415827610872;-8.1284;-3.2087000000000003;0.42565816831486836;-0.00018750572222052677;-0.00037501144444105353;8.284089060335093;18.48321718802454
114;1.9861867427825928;19.206415827610872;-7.162400000000001;-3.2087000000000003;0.42565816831486836;-0.00037501144444105353;-0.00018750572222052677;8.27450376781518;18.47299812616352
115;2.0034642219543457;19.206415827610872;-8.1284;-3.2087000000000003;0.42565816831486836;-0.00037501144444105353;-0.00018750572222052677;8.28968048097171;18.481173375652336
116;2.021491289138794;19.206415827610872;-7.162400000000001;-3.2087000000000003;0.42565816831486836;-0.00018750572222052677;0.0;8.280893962828454;18.47810765709403
