;Time;Thrust;Pressure1;Pressure2;Weight;Current;Voltage;Battery12V;Battery24V
0;0.0;35;1;1;-349;-0.00018750572222052677;-0.00018750572222052677;2.042124820703757;3.5352328867458116
1;0.1999999999999993;33;3;1;-344;-0.00018750572222052677;-0.00037501144444105353;2.0415623035370953;3.5376704611346783
2;0.2999999999999998;36;1;2;-345;-0.00018750572222052677;-0.00018750572222052677;2.0439998779259625;2.043624866481521
3;0.39999999999999947;35;0;0;-347;-0.00018750572222052677;-0.00018750572222052677;2.0408122806482134;3.535607898190252
4;0.5;36;1;1;-348;0.0;-0.00018750572222052677;2.042499832148198;3.5386079897457807
5;0.5999999999999996;11;1;0;-349;-0.00037501144444105353;-0.00018750572222052677;2.044187383648183;3.5367329325235755
6;0.6999999999999993;36;1;2;-347;-0.00018750572222052677;-0.00037501144444105353;2.0406247749259925;3.535045381023591
7;0.7999999999999998;34;1;1;-347;-0.00037501144444105353;-0.00018750572222052677;2.0415623035370953;3.535607898190252
8;1.0;36;1;1;-349;-0.00018750572222052677;-0.00018750572222052677;2.042874843592639;3.533545335245827
9;1.0999999999999996;39;1;0;-349;-0.00018750572222052677;0.0;2.03968724631489;3.533545335245827
10;1.1999999999999993;36;1;1;-346;-0.00018750572222052677;-0.00018750572222052677;2.0389372234260077;3.5339203466902678
11;1.299999999999999;39;2;0;-347;0.0;0.0;2.0415623035370953;3.5344828638569297
12;1.4000000000000004;38;0;2;-345;-0.00018750572222052677;0.0;2.041749809259316;3.5333578295236063
13;1.5;39;0;0;-348;-0.00018750572222052677;-0.00018750572222052677;2.040062257759331;3.533170323801386
14;1.5999999999999996;38;2;0;-349;0.0;-0.00018750572222052677;2.0389372234260077;3.533170323801386
15;1.799999999999999;38;2;1;-346;-0.00018750572222052677;0.0;2.0383747062593462;3.5344828638569297
16;1.9000000000000004;35;0;2;-347;3.5384204840235602;-0.00037501144444105353;2.0389372234260077;3.538795495468001
17;2.0;34;0;2;-346;-0.00037501144444105353;-0.00018750572222052677;2.039312234870449;3.53467036957915
18;2.0999999999999996;41;2;1;-347;-0.00037501144444105353;0.0;2.0381872005371258;3.5337328409680473
19;2.1999999999999993;35;1;1;-346;-0.00018750572222052677;-0.00018750572222052677;2.040437269203772;3.533170323801386
20;2.299999999999999;34;1;1;-349;0.0;-0.00018750572222052677;2.0402497634815515;3.533170323801386
21;2.4000000000000004;37;1;1;-347;-0.00018750572222052677;-0.00018750572222052677;2.0402497634815515;3.5339203466902678
22;2.5;39;1;0;-347;0.0;-0.00018750572222052677;2.0398747520371106;3.5363579210791345
23;2.6999999999999993;36;2;1;-347;-0.00018750572222052677;-0.00018750572222052677;2.0394997405926696;3.5337328409680473
24;2.799999999999999;35;2;2;-347;0.0;-0.00018750572222052677;2.0423123264259773;3.5339203466902678
25;2.9000000000000004;38;0;1;-346;-0.00037501144444105353;-0.00018750572222052677;2.0411872920926544;3.5339203466902678
26;3.0;37;3;3;-346;-0.00037501144444105353;-0.00018750572222052677;2.041749809259316;3.5342953581347087
27;3.0999999999999996;37;2;1;-350;-0.00018750572222052677;-0.00018750572222052677;2.0381872005371258;3.533545335245827
28;3.1999999999999993;36;2;1;-349;-0.00018750572222052677;0.0;2.0430623493148596;3.5348578753013706
29;3.299999999999999;35;1;1;-349;-0.00018750572222052677;-0.00018750572222052677;2.0383747062593462;3.5342953581347087
30;3.5;34;1;1;-346;0.0;-0.00018750572222052677;2.0379996948149053;3.5342953581347087
31;3.5999999999999996;37;1;1;-347;0.0;-0.00018750572222052677;2.0385622119815667;3.5348578753013706
32;3.6999999999999993;34;2;1;-348;-0.00018750572222052677;-0.00018750572222052677;2.0411872920926544;3.535607898190252
33;3.799999999999999;36;3;0;-349;0.0;-0.00018750572222052677;2.0361246375927;3.5354203924680316
34;3.9000000000000004;36;1;2;-349;-0.00018750572222052677;0.0;2.040062257759331;3.53467036957915
35;4.0;38;1;1;-348;-0.00018750572222052677;0.0;2.037812189092685;3.533545335245827
36;4.1;34;-1;2;-347;-0.00037501144444105353;0.0;2.036499649037141;3.5376704611346783
37;4.299999999999999;36;1;1;-347;-0.00018750572222052677;-0.00018750572222052677;2.04324985503708;3.531857783745842
38;4.4;36;0;0;-348;-0.00037501144444105353;-0.00018750572222052677;2.0402497634815515;3.5339203466902678
39;4.5;35;1;0;-345;-0.00018750572222052677;-0.00018750572222052677;2.037249671926023;3.5339203466902678
40;4.6;35;0;2;-345;-0.00018750572222052677;-0.00018750572222052677;2.041374797814875;3.5333578295236063
41;4.699999999999999;39;2;2;-350;-0.00018750572222052677;-0.00018750572222052677;2.0411872920926544;3.5342953581347087
42;4.799999999999999;37;2;1;-347;0.00018750572222052677;0.0;2.040062257759331;3.53467036957915
43;4.9;37;-1;0;-347;-0.00018750572222052677;-0.00018750572222052677;2.040062257759331;3.532795312356945
44;5.1;69;0;1;-346;-0.00018750572222052677;-0.00018750572222052677;2.0426873378704187;3.53467036957915
45;5.199999999999999;129;2;1;-347;0.0;-0.00018750572222052677;2.0408122806482134;3.533170323801386
46;5.299999999999999;252;1;2;-349;-0.00018750572222052677;-0.00018750572222052677;2.042874843592639;3.5363579210791345
47;5.4;324;0;1;-346;-0.00037501144444105353;0.0;2.0411872920926544;3.5367329325235755
48;5.4;305;1;0;-345;-0.00018750572222052677;-0.00037501144444105353;2.0398747520371106;3.530920255134739
49;5.5;365;2;2;-349;0.0;-0.00018750572222052677;2.0402497634815515;3.533170323801386
50;5.6;429;0;2;-346;-0.00018750572222052677;-0.00018750572222052677;2.0415623035370953;3.5354203924680316
51;5.699999999999999;461;0;1;-346;0.0;-0.00018750572222052677;2.0391247291482286;3.5339203466902678
52;5.9;464;2;2;-347;-0.00018750572222052677;-0.00018750572222052677;2.040999786370434;3.530545243690298
53;6.0;498;1;1;-347;-0.00018750572222052677;0.0;2.0389372234260077;3.5337328409680473
54;6.1;504;1;1;-348;-0.00018750572222052677;-0.00018750572222052677;2.042499832148198;3.5333578295236063
55;6.199999999999999;526;2;2;-347;0.00018750572222052677;-0.00018750572222052677;2.0391247291482286;3.5344828638569297
56;6.299999999999999;526;1;1;-348;0.0;-0.00018750572222052677;2.036874660481582;3.533170323801386
57;6.4;514;1;2;-348;-0.00018750572222052677;-0.00018750572222052677;2.0389372234260077;3.529420209356975
58;6.5;530;2;2;-346;0.0;-0.00018750572222052677;2.041749809259316;3.536920438245796
59;6.699999999999999;534;1;2;-347;0.0;0.0;2.0415623035370953;3.5354203924680316
60;6.799999999999999;534;1;2;-348;-0.00018750572222052677;-0.00018750572222052677;2.0408122806482134;3.5354203924680316
61;6.9;551;1;3;-349;-0.00018750572222052677;-0.00037501144444105353;2.0385622119815667;3.5329828180791654
62;7.0;558;1;2;-349;-0.00018750572222052677;0.0;2.040999786370434;3.5320452894680625
63;7.1;568;1;1;-362;0.0;-0.00018750572222052677;2.04324985503708;3.5329828180791654
64;7.199999999999999;579;1;1;-349;-0.00037501144444105353;-0.00018750572222052677;2.042124820703757;3.53110776085696
65;7.299999999999999;586;1;1;-345;0.0;-0.00018750572222052677;2.0398747520371106;3.536170415356914
66;7.5;602;2;2;-346;-0.00018750572222052677;-0.00018750572222052677;2.0391247291482286;3.5312952665791806
67;7.6;619;0;2;-350;0.0;-0.00018750572222052677;2.0402497634815515;3.532607806634724
68;7.699999999999999;638;1;2;-347;-0.00018750572222052677;-0.00018750572222052677;2.040999786370434;3.5363579210791345
69;7.799999999999999;707;2;0;-347;0.0;-0.00018750572222052677;2.043624866481521;3.5324203009125035
70;7.9;745;1;0;-346;-0.00018750572222052677;-0.00018750572222052677;2.0439998779259625;3.5342953581347087
71;8.0;702;1;1;-347;-0.00018750572222052677;-0.00018750572222052677;2.0398747520371106;3.5333578295236063
72;8.1;379;2;2;-346;0.0;-0.00018750572222052677;2.041749809259316;3.5342953581347087
73;8.2;49;2;3;-348;0.0;-0.00018750572222052677;2.0402497634815515;3.5342953581347087
74;8.4;0;0;0;-350;-0.00037501144444105353;-0.00018750572222052677;2.039312234870449;3.5354203924680316
75;8.5;32;2;1;-348;-0.00018750572222052677;-0.00018750572222052677;2.0415623035370953;3.5359829096346935
76;8.6;39;2;1;-348;-0.00018750572222052677;-0.00018750572222052677;2.0398747520371106;3.5320452894680625
77;8.7;38;1;1;-347;0.0;-0.00018750572222052677;2.0419373149815363;3.5333578295236063
78;8.799999999999999;35;0;0;-348;0.0;-0.00018750572222052677;2.0394997405926696;3.533545335245827
79;8.9;36;2;2;-347;-0.00018750572222052677;-0.00018750572222052677;2.0415623035370953;3.5339203466902678
80;9.0;38;2;1;-348;-0.00018750572222052677;-0.00018750572222052677;2.040999786370434;3.5348578753013706
81;9.200000000000001;36;2;1;-344;-0.00018750572222052677;-0.00018750572222052677;2.0394997405926696;3.5357954039124726
82;9.299999999999999;36;2;1;-347;-0.00018750572222052677;0.0;2.0406247749259925;3.535607898190252
83;9.4;35;1;0;-347;-0.00018750572222052677;-0.00037501144444105353;2.039312234870449;3.536920438245796
84;9.499999999999998;32;1;0;-348;0.0;-0.00037501144444105353;2.037249671926023;3.532232795190283
85;9.6;37;2;1;-346;-0.00018750572222052677;-0.00018750572222052677;2.04699996948149;3.541045564134648
86;9.700000000000001;39;1;1;-347;-0.00018750572222052677;-0.00018750572222052677;2.040062257759331;3.5341078524124883
87;9.799999999999999;36;1;1;-350;-0.00018750572222052677;-0.00018750572222052677;2.0408122806482134;3.5320452894680625
88;9.999999999999998;36;2;2;-347;0.0;-0.00018750572222052677;2.0357496261482586;3.5344828638569297
89;10.1;37;1;0;-347;-0.00018750572222052677;-0.00018750572222052677;2.040999786370434;3.5320452894680625
90;10.200000000000001;39;1;1;-349;0.0;-0.00018750572222052677;2.0394997405926696;3.532795312356945
91;10.299999999999999;35;2;1;-348;0.0;-0.00018750572222052677;2.0381872005371258;3.5337328409680473
92;10.4;38;2;3;-346;-0.00018750572222052677;-0.00018750572222052677;2.038749717703787;3.5333578295236063
93;10.499999999999998;37;0;2;-346;-0.00018750572222052677;-0.00018750572222052677;2.042874843592639;3.536170415356914
94;10.6;35;1;1;-347;-0.00018750572222052677;-0.00018750572222052677;2.0389372234260077;3.529607715079196
95;10.799999999999999;40;2;0;-347;-0.00018750572222052677;-0.00018750572222052677;2.037812189092685;3.5312952665791806
96;10.9;36;1;3;-349;-0.00018750572222052677;-0.00018750572222052677;2.0389372234260077;3.533170323801386
97;10.999999999999998;37;1;1;-348;-0.00018750572222052677;-0.00018750572222052677;2.039312234870449;3.530920255134739
98;11.1;36;1;1;-348;0.0;-0.00018750572222052677;2.042124820703757;3.533170323801386
99;11.200000000000001;36;2;0;-348;-0.00018750572222052677;-0.00018750572222052677;2.0376246833704643;3.533170323801386
100;11.299999999999999;35;1;1;-347;-0.00018750572222052677;0.0;2.0398747520371106;3.535045381023591
101;11.4;38;1;0;-349;-0.00018750572222052677;-0.00018750572222052677;2.036874660481582;3.531482772301401
102;11.499999999999998;37;1;0;-347;0.0;-0.00018750572222052677;2.0411872920926544;3.5324203009125035
103;11.700000000000001;37;1;2;-347;0.0;-0.00018750572222052677;2.0406247749259925;3.5329828180791654
104;11.799999999999999;37;-1;2;-346;-0.00018750572222052677;-0.00018750572222052677;2.0415623035370953;3.531857783745842
105;11.9;36;0;3;-349;-0.00018750572222052677;-0.00018750572222052677;2.0423123264259773;3.5329828180791654
106;11.999999999999998;37;2;0;-344;0.0;-0.00037501144444105353;2.039312234870449;3.5316702780236215
107;12.1;36;1;2;-349;-0.00037501144444105353;0.0;2.0383747062593462;3.5320452894680625
108;12.200000000000001;36;1;1;-346;-0.00018750572222052677;-0.00018750572222052677;2.042499832148198;3.5329828180791654
109;12.299999999999999;37;2;2;-347;0.0;0.0;2.03968724631489;3.537295449690237
110;12.499999999999998;34;1;1;-347;-0.00018750572222052677;0.0;2.042499832148198;3.5382329783013398
111;12.6;37;1;1;-347;-0.00018750572222052677;-0.00018750572222052677;2.038749717703787;3.5333578295236063
112;12.700000000000001;35;0;2;-348;0.0;-0.00018750572222052677;2.0398747520371106;3.5303577379680777
113;12.799999999999999;14;1;1;-348;-0.00018750572222052677;-0.00018750572222052677;2.041749809259316;3.528670186468093
114;12.9;36;0;2;-345;-0.00018750572222052677;0.0;2.0402497634815515;3.533545335245827
115;12.999999999999998;37;0;2;-347;-0.00018750572222052677;-0.00018750572222052677;2.041374797814875;3.5320452894680625
116;13.1;34;1;3;-350;0.0;-0.00018750572222052677;2.0376246833704643;3.531482772301401
117;13.299999999999999;38;0;1;-347;-0.00018750572222052677;-0.00018750572222052677;2.0385622119815667;3.53467036957915
118;13.4;39;1;1;-346;-0.00018750572222052677;-0.00018750572222052677;2.0394997405926696;3.5337328409680473
119;13.499999999999998;36;0;2;-348;0.0;0.0;2.0423123264259773;3.533545335245827
120;13.6;36;1;1;-347;0.0;0.0;2.037812189092685;3.532232795190283
121;13.700000000000001;39;1;1;-347;-0.00018750572222052677;0.0;2.0379996948149053;3.5312952665791806
122;13.799999999999999;38;1;1;-347;-0.00018750572222052677;-0.00018750572222052677;2.037812189092685;3.532232795190283
123;13.9;34;0;1;-348;-0.00018750572222052677;-0.00018750572222052677;2.03968724631489;3.5339203466902678
124;13.999999999999998;39;1;3;-347;0.0;-0.00018750572222052677;2.03968724631489;3.533545335245827
125;14.200000000000001;36;0;2;-345;-0.00018750572222052677;-0.00018750572222052677;2.040437269203772;3.535607898190252
126;14.299999999999999;34;2;1;-348;0.0;-0.00018750572222052677;2.043624866481521;3.535045381023591
127;14.4;37;2;3;-349;0.0;-0.00018750572222052677;2.0419373149815363;3.5341078524124883
128;14.499999999999998;36;-1;2;-346;-0.00037501144444105353;-0.00018750572222052677;2.0415623035370953;3.529607715079196
129;14.6;32;2;0;-346;0.0;-0.00018750572222052677;2.037249671926023;3.531482772301401
130;14.700000000000001;36;2;2;-348;-0.00018750572222052677;-0.00018750572222052677;2.042499832148198;3.5333578295236063
131;14.799999999999999;35;1;2;-346;0.0;-0.00018750572222052677;2.037249671926023;3.5316702780236215
132;14.999999999999998;34;2;-1;-346;-0.00018750572222052677;-0.00018750572222052677;2.0379996948149053;3.5316702780236215
133;15.1;36;2;2;-347;-0.00018750572222052677;-0.00018750572222052677;2.042874843592639;3.532232795190283
134;15.200000000000001;38;0;3;-346;-0.00018750572222052677;-0.00018750572222052677;2.037812189092685;3.531482772301401
135;15.299999999999999;39;37;2;-346;3.5354203924680316;-0.00018750572222052677;2.036499649037141;3.5352328867458116
136;15.4;33;0;2;-346;-0.00018750572222052677;-0.00018750572222052677;2.0389372234260077;3.532795312356945
137;15.499999999999998;37;2;3;-349;0.0;-0.00018750572222052677;2.0408122806482134;3.533170323801386
138;15.6;37;3;2;-346;-0.00037501144444105353;-0.00018750572222052677;2.0379996948149053;3.532795312356945
139;15.799999999999999;36;1;0;-347;0.0;-0.00018750572222052677;2.0389372234260077;3.532607806634724
140;15.9;36;3;1;-347;-0.00018750572222052677;0.0;2.0361246375927;3.5316702780236215
141;15.999999999999998;36;1;1;-348;-0.00018750572222052677;-0.00018750572222052677;2.0391247291482286;3.531857783745842
142;16.1;37;2;1;-347;-0.00018750572222052677;0.0;2.0398747520371106;3.532232795190283
143;16.200000000000003;35;0;0;-349;-0.00018750572222052677;-0.00018750572222052677;2.0379996948149053;3.532607806634724
144;16.299999999999997;37;0;1;-347;0.0;-0.00018750572222052677;2.0385622119815667;3.530545243690298
145;16.4;35;1;1;-346;0.0;-0.00018750572222052677;2.0398747520371106;3.5333578295236063
146;16.6;35;1;0;-349;0.0;-0.00018750572222052677;3.5359829096346935;3.5303577379680777
147;16.700000000000003;37;3;1;-347;0.0;0.0;2.0385622119815667;3.5329828180791654
148;16.799999999999997;37;1;1;-346;-0.00018750572222052677;0.0;2.0361246375927;3.5320452894680625
149;16.9;35;1;1;-346;-0.00018750572222052677;0.0;2.041749809259316;3.5312952665791806
150;17.0;41;1;1;-347;0.0;0.0;2.0415623035370953;3.5333578295236063
151;17.1;38;0;1;-349;-0.00018750572222052677;-0.00018750572222052677;2.037812189092685;3.533170323801386
152;17.200000000000003;35;3;0;-349;-0.00018750572222052677;-0.00018750572222052677;2.042124820703757;3.5324203009125035
153;17.299999999999997;10;1;2;-370;-0.00018750572222052677;-0.00018750572222052677;2.0383747062593462;3.532232795190283
154;17.5;39;1;1;-347;-0.00018750572222052677;0.0;2.038749717703787;3.5352328867458116
155;17.6;36;2;1;-347;0.0;-0.00018750572222052677;2.0402497634815515;3.5329828180791654
156;17.700000000000003;37;2;0;-348;-0.00037501144444105353;-0.00018750572222052677;2.0391247291482286;3.532795312356945
157;17.799999999999997;38;2;2;-346;-0.00018750572222052677;-0.00018750572222052677;2.045312417981506;3.5371079439680164
158;17.9;35;2;2;-350;-0.00018750572222052677;-0.00018750572222052677;2.0374371776482434;3.5341078524124883
159;18.0;32;1;1;-345;-0.00018750572222052677;-0.00018750572222052677;2.0383747062593462;3.530545243690298
160;18.1;37;1;1;-346;0.0;0.0;2.041749809259316;3.5354203924680316
161;18.299999999999997;36;1;1;-348;0.0;-0.00018750572222052677;2.0391247291482286;3.5262326120792262
162;18.4;34;1;3;-347;-0.00018750572222052677;-0.00018750572222052677;2.0370621662038024;3.530920255134739
163;18.5;37;1;1;-348;-0.00018750572222052677;0.0;2.037249671926023;3.530545243690298
164;18.6;36;1;1;-346;-0.00018750572222052677;-0.00018750572222052677;2.041749809259316;3.533170323801386
165;18.700000000000003;35;0;2;-349;0.0;-0.00018750572222052677;2.0415623035370953;3.5324203009125035
166;18.799999999999997;36;-2;2;-348;-0.00018750572222052677;-0.00018750572222052677;2.0398747520371106;3.5341078524124883
167;18.9;36;1;1;-350;-0.00018750572222052677;-0.00018750572222052677;2.0406247749259925;3.5348578753013706
168;19.1;36;2;0;-345;-0.00018750572222052677;-0.00018750572222052677;2.0374371776482434;3.532795312356945
169;19.200000000000003;34;3;2;-346;-0.00018750572222052677;0.0;2.037249671926023;3.5312952665791806
170;19.299999999999997;41;2;0;-346;0.0;-0.00037501144444105353;2.0391247291482286;3.5337328409680473
171;19.4;34;-1;0;-346;-0.00018750572222052677;-0.00018750572222052677;2.0415623035370953;3.5316702780236215
172;19.5;37;2;1;-345;0.0;-0.00018750572222052677;2.0406247749259925;3.536545426801355
173;19.6;37;0;1;-346;-0.00018750572222052677;0.0;2.040437269203772;3.5357954039124726
174;19.700000000000003;36;-1;0;-348;-0.00018750572222052677;0.0;2.0398747520371106;3.532232795190283
175;19.9;35;1;2;-348;-0.00018750572222052677;-0.00018750572222052677;2.040062257759331;3.531857783745842
176;20.0;36;1;0;-349;-0.00018750572222052677;-0.00018750572222052677;2.0374371776482434;3.533170323801386
177;20.1;36;1;2;-346;-0.00018750572222052677;-0.00018750572222052677;2.0411872920926544;3.5320452894680625
178;20.200000000000003;33;1;0;-346;-0.00037501144444105353;0.0;2.0374371776482434;3.530920255134739
179;20.299999999999997;35;2;1;-349;-0.00018750572222052677;-0.00018750572222052677;2.0385622119815667;3.532607806634724
180;20.4;37;1;1;-348;-0.00018750572222052677;-0.00018750572222052677;2.0411872920926544;3.5367329325235755
181;20.5;36;2;1;-346;0.0;-0.00018750572222052677;2.044187383648183;3.5339203466902678
182;20.700000000000003;38;0;2;-347;0.0;-0.00018750572222052677;2.03968724631489;3.532607806634724
183;20.799999999999997;38;2;1;-348;0.0;-0.00037501144444105353;2.0389372234260077;3.5341078524124883
184;20.9;-26;2;2;-347;0.00018750572222052677;-0.00018750572222052677;2.0402497634815515;3.531857783745842
185;21.0;36;1;1;-346;0.0;-0.00018750572222052677;2.042124820703757;3.5333578295236063
186;21.1;37;2;1;-347;0.0;-0.00037501144444105353;2.0426873378704187;3.533545335245827
187;21.200000000000003;7;2;1;-344;-0.00018750572222052677;-0.00018750572222052677;2.0406247749259925;3.532795312356945
188;21.299999999999997;33;38;3;-354;3.536170415356914;-0.00018750572222052677;2.042124820703757;3.533545335245827
189;21.4;36;2;2;-348;-0.00018750572222052677;-0.00018750572222052677;2.041749809259316;3.5337328409680473
190;21.6;35;1;1;-346;-0.00037501144444105353;0.0;2.042124820703757;3.5329828180791654
191;21.700000000000003;34;1;1;-345;-0.00018750572222052677;-0.00037501144444105353;2.0376246833704643;3.5339203466902678
192;21.799999999999997;35;1;1;-348;0.0;0.0;2.03968724631489;3.532795312356945
193;21.9;37;1;2;-347;-0.00018750572222052677;-0.00018750572222052677;2.040999786370434;3.536545426801355
