;Time;Thrust;Pressure1;Pressure2;Weight;Current;Voltage;Battery12V;Battery24V
0;0.0;-0.11229091821898311;-7.162400000000001;-3.2087000000000003;0.42565816831486836;-0.00018750572222052677;-0.00018750572222052677;9.332879816888942;19.526583404034547
1;0.19999999999998863;-0.11229091821898311;-7.162400000000001;-3.2087000000000003;0.42565816831486836;-0.00018750572222052677;-0.00018750572222052677;9.319300652485731;19.536802465895565
2;0.29999999999999716;-0.11229091821898311;-7.162400000000001;-3.2087000000000003;0.42565816831486836;-0.00018750572222052677;-0.00018750572222052677;9.316105554979094;19.53475865352336
3;0.3999999999999915;-0.11229091821898311;-7.162400000000001;-3.2087000000000003;0.42565816831486836;-0.00018750572222052677;0.0;9.32169697561571;19.540890090639973
4;0.5;-0.11229091821898311;-7.162400000000001;-3.2087000000000003;0.42565816831486836;-0.00018750572222052677;-0.00018750572222052677;9.32169697561571;19.53782437208167
5;0.5999999999999943;-0.11229091821898311;-7.162400000000001;-3.2087000000000003;0.42565816831486836;0.0;-0.00018750572222052677;9.313709231849117;19.540890090639973
6;0.6999999999999886;-0.11229091821898311;-7.162400000000001;-3.2087000000000003;0.42565816831486836;-0.00018750572222052677;-0.00018750572222052677;9.317703103732413;19.548043433942688
7;0.7999999999999972;-0.11229091821898311;-7.162400000000001;-3.2087000000000003;0.42565816831486836;0.0;-0.00018750572222052677;9.325690847499006;19.53782437208167
8;1.0;-0.11229091821898311;-7.162400000000001;-3.2087000000000003;0.42565816831486836;-0.00018750572222052677;-0.00018750572222052677;9.32249574999237;19.55110915250099
9;1.0999999999999943;-0.11229091821898311;-7.162400000000001;-3.2087000000000003;0.42565816831486836;-0.00018750572222052677;0.0;9.320898201239052;19.540890090639973
10;1.1999999999999886;-0.11229091821898311;-7.162400000000001;-3.2087000000000003;0.42565816831486836;-0.00018750572222052677;-0.00018750572222052677;9.323294524369029;19.53475865352336
11;1.2999999999999972;-0.11229091821898311;-8.1284;-3.2087000000000003;0.42565816831486836;-0.00018750572222052677;-0.00018750572222052677;9.319300652485731;19.532714841151158
12;1.3999999999999915;-0.11229091821898311;-7.162400000000001;-3.2087000000000003;0.42565816831486836;0.0;-0.00018750572222052677;9.319300652485731;19.540890090639973
13;1.5;-0.11229091821898311;-7.162400000000001;-3.2087000000000003;0.42565816831486836;-0.00018750572222052677;-0.00037501144444105353;9.354446725058747;19.578700619525744
14;1.5999999999999943;-0.11229091821898311;-7.162400000000001;-3.2087000000000003;0.42565816831486836;3.587171971800897;0.0;9.323294524369029;19.541911996826077
15;1.7999999999999972;-0.11229091821898311;-7.162400000000001;-3.2087000000000003;0.42565816831486836;-0.00018750572222052677;-0.00018750572222052677;9.315306780602436;19.532714841151158
16;1.8999999999999915;-0.11229091821898311;-7.162400000000001;-3.2087000000000003;0.42565816831486836;0.0;-0.00018750572222052677;9.314508006225777;19.5531529648732
17;2.0;-0.11229091821898311;-7.162400000000001;-3.2087000000000003;0.42565816831486836;-0.00018750572222052677;-0.00018750572222052677;9.327288396252326;19.542933903012177
18;2.0999999999999943;-0.11229091821898311;-7.162400000000001;-3.2087000000000003;0.42565816831486836;-0.00018750572222052677;-0.00018750572222052677;9.335276140018921;19.548043433942688
19;2.1999999999999886;-0.11229091821898311;-7.162400000000001;-3.2087000000000003;0.42565816831486836;-0.00018750572222052677;-0.00018750572222052677;9.314508006225777;19.545999621570484
20;2.299999999999997;-0.11229091821898311;-7.162400000000001;-3.2087000000000003;0.42565816831486836;-0.00018750572222052677;-0.00018750572222052677;9.323294524369029;19.53884627826777
21;2.3999999999999915;-0.11229091821898311;-7.162400000000001;-3.2087000000000003;0.42565816831486836;-0.00018750572222052677;-0.00018750572222052677;9.318501878109071;19.536802465895565
22;2.5999999999999943;-0.11229091821898311;-7.162400000000001;-3.2087000000000003;0.42565816831486836;-0.00018750572222052677;-0.00018750572222052677;9.328087170628987;19.535780559709465
23;2.6999999999999886;-0.11229091821898311;-7.162400000000001;-3.2087000000000003;0.42565816831486836;-0.00018750572222052677;-0.00018750572222052677;9.317703103732413;19.53884627826777
24;2.799999999999997;-0.11229091821898311;-7.162400000000001;-3.2087000000000003;0.42565816831486836;-0.00018750572222052677;0.0;9.327288396252326;19.53782437208167
25;2.8999999999999915;-0.11229091821898311;-7.162400000000001;-3.2087000000000003;0.42565816831486836;-0.00018750572222052677;-0.00018750572222052677;9.323294524369029;19.52147387310404
26;3.0;-0.11229091821898311;-7.162400000000001;-3.2087000000000003;0.42565816831486836;-0.00018750572222052677;-0.00018750572222052677;9.320898201239052;19.54497771538438
27;3.0999999999999943;-0.11229091821898311;-7.162400000000001;-3.2087000000000003;0.42565816831486836;-0.00018750572222052677;-0.00018750572222052677;9.317703103732413;19.539868184453873
28;3.1999999999999886;-0.11229091821898311;-8.1284;-3.2087000000000003;0.42565816831486836;0.0;-0.00018750572222052677;9.318501878109071;19.541911996826077
29;3.3999999999999915;-0.11229091821898311;-7.162400000000001;-3.2087000000000003;0.42565816831486836;-0.00018750572222052677;-0.00018750572222052677;9.317703103732413;19.5531529648732
30;3.5;-0.11229091821898311;-7.162400000000001;-3.2087000000000003;0.42565816831486836;-0.00018750572222052677;-0.00018750572222052677;9.326489621875666;19.563372026734218
31;3.5999999999999943;-0.11229091821898311;-7.162400000000001;-3.2087000000000003;0.42565816831486836;2.1913793755912963;0.0;9.323294524369029;19.542933903012177
32;3.6999999999999886;-9.77164429113391;-7.162400000000001;-3.2087000000000003;0.42565816831486836;-0.00037501144444105353;-0.00018750572222052677;9.313709231849117;19.536802465895565
33;3.799999999999997;-0.11229091821898311;-7.162400000000001;-3.2087000000000003;0.42565816831486836;0.0;-0.00018750572222052677;9.32169697561571;19.54497771538438
34;3.8999999999999915;-0.11229091821898311;-7.162400000000001;-3.2087000000000003;0.42565816831486836;-0.00037501144444105353;-0.00018750572222052677;9.320898201239052;19.54395580919828
35;4.0;-0.11229091821898311;-7.162400000000001;-3.2087000000000003;0.42565816831486836;-0.00018750572222052677;0.0;9.319300652485731;19.53782437208167
36;4.199999999999989;-0.11229091821898311;-7.162400000000001;-3.2087000000000003;0.42565816831486836;-0.00018750572222052677;-0.00018750572222052677;9.323294524369029;19.53782437208167
37;4.299999999999997;-0.11229091821898311;-7.162400000000001;-3.2087000000000003;0.42565816831486836;-0.00037501144444105353;-0.00037501144444105353;9.319300652485731;19.54395580919828
38;4.3999999999999915;-0.11229091821898311;-7.162400000000001;-3.2087000000000003;0.42565816831486836;-0.00018750572222052677;-0.00018750572222052677;9.318501878109071;19.548043433942688
39;4.5;-0.11229091821898311;-7.162400000000001;-3.2087000000000003;0.42565816831486836;-0.00018750572222052677;0.0;9.32249574999237;19.55110915250099
40;4.599999999999994;-0.11229091821898311;-7.162400000000001;-3.2087000000000003;0.42565816831486836;-0.00018750572222052677;-0.00018750572222052677;9.329684719382305;19.535780559709465
41;4.699999999999989;-0.11229091821898311;-7.162400000000001;-3.2087000000000003;0.42565816831486836;-0.00018750572222052677;0.0;9.315306780602436;19.52760531022065
42;4.799999999999997;-0.11229091821898311;-7.162400000000001;-3.2087000000000003;0.42565816831486836;-0.00018750572222052677;0.0;9.32169697561571;19.542933903012177
43;4.8999999999999915;-0.11229091821898311;-7.162400000000001;-3.2087000000000003;0.42565816831486836;-0.00018750572222052677;-0.00037501144444105353;9.324093298745689;19.536802465895565
44;5.099999999999994;-0.11229091821898311;-7.162400000000001;-3.2087000000000003;0.42565816831486836;-0.00018750572222052677;-0.00018750572222052677;9.316904329355753;19.55110915250099
45;5.199999999999989;-0.11229091821898311;-7.162400000000001;-3.2087000000000003;0.42565816831486836;0.0;0.0;9.312910457472457;19.53782437208167
46;5.299999999999997;-0.11229091821898311;-7.162400000000001;-3.2087000000000003;0.42565816831486836;-0.00018750572222052677;-0.00018750572222052677;9.318501878109071;19.536802465895565
47;5.3999999999999915;-0.11229091821898311;-7.162400000000001;-3.2087000000000003;0.42565816831486836;-0.00018750572222052677;-0.00018750572222052677;9.336074914395581;19.53884627826777
48;5.5;2.304417942703961;-7.162400000000001;-3.2087000000000003;0.42565816831486836;-0.00018750572222052677;-0.00018750572222052677;9.335276140018921;19.56132821436201
49;5.5;2.304417942703961;-7.162400000000001;-3.2087000000000003;0.42565816831486836;-0.00018750572222052677;-0.00037501144444105353;9.308916585589161;19.529649122592854
50;5.599999999999994;-0.11229091821898311;-7.162400000000001;-3.2087000000000003;0.42565816831486836;-0.00018750572222052677;0.0;9.323294524369029;19.536802465895565
51;5.799999999999997;-0.11229091821898311;-7.162400000000001;-3.2087000000000003;0.42565816831486836;-0.00018750572222052677;-0.00018750572222052677;9.312910457472457;19.539868184453873
52;5.8999999999999915;-0.11229091821898311;-7.162400000000001;-3.2087000000000003;0.42565816831486836;-0.00018750572222052677;-0.00037501144444105353;9.32169697561571;19.53475865352336
53;6.0;-0.11229091821898311;-7.162400000000001;-3.2087000000000003;0.42565816831486836;-0.00018750572222052677;-0.00018750572222052677;9.32009942686239;19.53475865352336
54;6.099999999999994;-0.11229091821898311;-7.162400000000001;-3.2087000000000003;0.42565816831486836;-0.00018750572222052677;-0.00018750572222052677;9.32009942686239;19.524539591662343
55;6.199999999999989;2.304417942703961;-7.162400000000001;-3.2087000000000003;0.42565816831486836;-0.00018750572222052677;-0.00018750572222052677;9.316105554979094;19.52862721640675
56;6.299999999999997;2.304417942703961;-7.162400000000001;-3.2087000000000003;0.42565816831486836;-0.00018750572222052677;0.0;9.316105554979094;19.52862721640675
57;6.3999999999999915;-0.11229091821898311;-7.162400000000001;-3.2087000000000003;0.42565816831486836;-0.00018750572222052677;-0.00018750572222052677;9.326489621875666;19.530671028778954
58;6.599999999999994;-0.11229091821898311;-7.162400000000001;-3.2087000000000003;0.42565816831486836;-0.00018750572222052677;-0.00018750572222052677;9.316105554979094;19.539868184453873
59;6.699999999999989;-0.11229091821898311;-7.162400000000001;-3.2087000000000003;0.42565816831486836;0.0;-0.00018750572222052677;9.313709231849117;19.533736747337258
60;6.799999999999997;-0.11229091821898311;-7.162400000000001;-3.2087000000000003;0.42565816831486836;-0.00018750572222052677;-0.00018750572222052677;9.324093298745689;19.54395580919828
61;6.8999999999999915;-0.11229091821898311;-7.162400000000001;-3.2087000000000003;0.42565816831486836;-0.00018750572222052677;0.0;9.32249574999237;19.536802465895565
62;7.0;-0.11229091821898311;-7.162400000000001;-3.2087000000000003;0.42565816831486836;-0.00018750572222052677;0.0;9.32009942686239;19.53782437208167
63;7.099999999999994;-0.11229091821898311;-7.162400000000001;-3.2087000000000003;0.42565816831486836;-0.00018750572222052677;-0.00037501144444105353;9.324892073122347;19.535780559709465
64;7.199999999999989;-0.11229091821898311;-7.162400000000001;-3.2087000000000003;0.42565816831486836;-0.00018750572222052677;-0.00018750572222052677;9.288947226172674;19.52147387310404
65;7.3999999999999915;-0.11229091821898311;-7.162400000000001;-3.2087000000000003;0.42565816831486836;-0.00037501144444105353;-0.00018750572222052677;15.289340343638417;19.52760531022065
66;7.5;-0.11229091821898311;-7.162400000000001;-3.2087000000000003;0.42565816831486836;-0.00018750572222052677;-0.00037501144444105353;9.311312908719138;19.533736747337258
67;7.599999999999994;-0.11229091821898311;-7.162400000000001;-3.2087000000000003;0.42565816831486836;-0.00018750572222052677;0.0;9.30971535996582;19.545999621570484
68;7.699999999999989;-0.11229091821898311;-7.162400000000001;-3.2087000000000003;0.42565816831486836;-0.00018750572222052677;-0.00018750572222052677;9.313709231849117;19.530671028778954
69;7.799999999999997;-0.11229091821898311;-7.162400000000001;-3.2087000000000003;0.42565816831486836;-0.00018750572222052677;-0.00018750572222052677;9.308117811212501;19.5551967772454
70;7.8999999999999915;-0.11229091821898311;-7.162400000000001;-3.2087000000000003;0.42565816831486836;-0.00018750572222052677;-0.00018750572222052677;9.319300652485731;19.529649122592854
71;8.0;-0.11229091821898311;-7.162400000000001;-3.2087000000000003;0.42565816831486836;0.0;-0.00018750572222052677;9.313709231849117;19.557240589617603
72;8.199999999999989;-0.11229091821898311;-7.162400000000001;-3.2087000000000003;0.42565816831486836;-0.00018750572222052677;-0.00018750572222052677;9.328087170628987;19.540890090639973
73;8.299999999999997;-0.11229091821898311;-7.162400000000001;-3.2087000000000003;0.42565816831486836;-0.00018750572222052677;0.0;9.304922713705862;19.536802465895565
74;8.399999999999991;-0.11229091821898311;-7.162400000000001;-3.2087000000000003;0.42565816831486836;-0.00037501144444105353;-0.00018750572222052677;9.331282268135624;19.54395580919828
75;8.5;-0.11229091821898311;-7.162400000000001;-3.2087000000000003;0.42565816831486836;0.0;-0.00018750572222052677;9.316904329355753;19.536802465895565
76;8.599999999999994;-0.11229091821898311;-7.162400000000001;-3.2087000000000003;0.42565816831486836;-0.00018750572222052677;0.0;9.306520262459182;19.53782437208167
77;8.699999999999989;-0.11229091821898311;-7.162400000000001;-3.2087000000000003;0.42565816831486836;-0.00018750572222052677;0.0;9.317703103732413;19.540890090639973
78;8.799999999999997;-0.11229091821898311;-7.162400000000001;-3.2087000000000003;0.42565816831486836;-0.00018750572222052677;-0.00018750572222052677;9.32169697561571;19.53475865352336
79;9.0;-0.11229091821898311;-7.162400000000001;-3.2087000000000003;0.42565816831486836;-0.00018750572222052677;-0.00018750572222052677;9.32009942686239;19.540890090639973
80;9.099999999999994;-0.11229091821898311;-7.162400000000001;-3.2087000000000003;0.42565816831486836;-0.00018750572222052677;-0.00018750572222052677;9.312111683095797;19.5541748710593
81;9.199999999999989;-0.11229091821898311;-7.162400000000001;-3.2087000000000003;0.42565816831486836;0.0;0.0;9.331282268135624;19.529649122592854
82;9.299999999999997;-0.11229091821898311;-7.162400000000001;-3.2087000000000003;0.42565816831486836;-0.00018750572222052677;0.0;9.324892073122347;19.56643774529252
83;9.399999999999991;-0.11229091821898311;-7.162400000000001;-3.2087000000000003;0.42565816831486836;0.0;-0.00018750572222052677;15.294132989898372;19.540890090639973
84;9.5;-0.11229091821898311;-7.162400000000001;-3.2087000000000003;0.42565816831486836;-0.00037501144444105353;-0.00018750572222052677;9.332081042512282;19.535780559709465
85;9.599999999999994;-0.11229091821898311;-7.162400000000001;-3.2087000000000003;0.42565816831486836;0.0;-0.00037501144444105353;9.317703103732413;19.52862721640675
86;9.699999999999989;-0.11229091821898311;-7.162400000000001;-3.2087000000000003;0.42565816831486836;-0.00018750572222052677;-0.00018750572222052677;9.316105554979094;19.539868184453873
87;9.899999999999991;-0.11229091821898311;-7.162400000000001;-3.2087000000000003;0.42565816831486836;-0.00018750572222052677;-0.00018750572222052677;9.32009942686239;19.54497771538438
88;10.0;-0.11229091821898311;-7.162400000000001;-3.2087000000000003;0.42565816831486836;0.0;-0.00018750572222052677;9.313709231849117;19.530671028778954
89;10.099999999999994;-0.11229091821898311;-7.162400000000001;-3.2087000000000003;0.42565816831486836;-0.00018750572222052677;0.0;9.318501878109071;19.539868184453873
90;10.199999999999989;-0.11229091821898311;-7.162400000000001;-3.2087000000000003;0.42565816831486836;0.0;0.0;9.324892073122347;19.530671028778954
91;10.299999999999997;-0.11229091821898311;-7.162400000000001;-3.2087000000000003;0.42565816831486836;0.0;-0.00018750572222052677;9.32249574999237;19.535780559709465
92;10.399999999999991;-0.11229091821898311;-7.162400000000001;-3.2087000000000003;0.42565816831486836;0.0;-0.00018750572222052677;9.324892073122347;19.53884627826777
93;10.5;-0.11229091821898311;-7.162400000000001;-3.2087000000000003;0.42565816831486836;-0.00018750572222052677;-0.00018750572222052677;9.318501878109071;19.54497771538438
94;10.699999999999989;-0.11229091821898311;-7.162400000000001;-3.2087000000000003;0.42565816831486836;-0.00018750572222052677;-0.00018750572222052677;9.316904329355753;19.53884627826777
95;10.799999999999997;-0.11229091821898311;-7.162400000000001;-3.2087000000000003;0.42565816831486836;-0.00018750572222052677;-0.00018750572222052677;9.316105554979094;19.545999621570484
96;10.899999999999991;-0.11229091821898311;-7.162400000000001;-3.2087000000000003;0.42565816831486836;-0.00018750572222052677;0.0;9.324892073122347;19.533736747337258
97;11.0;-0.11229091821898311;-7.162400000000001;-3.2087000000000003;0.42565816831486836;-0.00018750572222052677;-0.00018750572222052677;9.317703103732413;19.530671028778954
98;11.099999999999994;-0.11229091821898311;-7.162400000000001;-3.2087000000000003;0.42565816831486836;-0.00018750572222052677;0.0;9.32169697561571;19.533736747337258
99;11.199999999999989;-0.11229091821898311;-7.162400000000001;-3.2087000000000003;0.42565816831486836;-0.00018750572222052677;-0.00018750572222052677;9.324892073122347;19.532714841151158
100;11.299999999999997;-0.11229091821898311;-7.162400000000001;-3.2087000000000003;0.42565816831486836;0.0;-0.00018750572222052677;9.318501878109071;19.55110915250099
101;11.5;-0.11229091821898311;-7.162400000000001;-3.2087000000000003;0.42565816831486836;-0.00018750572222052677;-0.00037501144444105353;15.277358727988526;19.535780559709465
102;11.599999999999994;-0.11229091821898311;-7.162400000000001;-3.2087000000000003;0.42565816831486836;-0.00018750572222052677;0.0;9.329684719382305;19.53475865352336
103;11.699999999999989;-0.11229091821898311;-7.162400000000001;-3.2087000000000003;0.42565816831486836;-0.00018750572222052677;-0.00037501144444105353;9.318501878109071;19.53782437208167
104;11.799999999999997;-0.11229091821898311;-7.162400000000001;-3.2087000000000003;0.42565816831486836;-0.00018750572222052677;0.0;9.314508006225777;19.52760531022065
105;11.899999999999991;-0.11229091821898311;-7.162400000000001;-3.2087000000000003;0.42565816831486836;-0.00018750572222052677;-0.00018750572222052677;9.31051413434248;19.531692934965058
106;12.0;-0.11229091821898311;-7.162400000000001;-3.2087000000000003;0.42565816831486836;-0.00018750572222052677;0.0;9.330483493758964;19.53782437208167
107;12.099999999999994;-0.11229091821898311;-7.162400000000001;-3.2087000000000003;0.42565816831486836;-0.00037501144444105353;-0.00018750572222052677;9.328885945005645;19.535780559709465
108;12.299999999999997;-0.11229091821898311;-7.162400000000001;-3.2087000000000003;0.42565816831486836;-0.00037501144444105353;-0.00018750572222052677;9.318501878109071;19.515342435987428
109;12.399999999999991;-0.11229091821898311;-7.162400000000001;-3.2087000000000003;0.42565816831486836;-0.00018750572222052677;-0.00018750572222052677;9.317703103732413;19.526583404034547
110;12.5;-0.11229091821898311;-7.162400000000001;-3.2087000000000003;0.42565816831486836;-0.00018750572222052677;-0.00018750572222052677;9.325690847499006;19.54497771538438
111;12.599999999999994;-0.11229091821898311;-7.162400000000001;-3.2087000000000003;0.42565816831486836;0.0;-0.00018750572222052677;9.330483493758964;19.548043433942688
112;12.699999999999989;-0.11229091821898311;-7.162400000000001;-3.2087000000000003;0.42565816831486836;-0.00018750572222052677;-0.00018750572222052677;9.318501878109071;19.536802465895565
113;12.799999999999997;-0.11229091821898311;-7.162400000000001;-3.2087000000000003;0.42565816831486836;-0.00018750572222052677;-0.00018750572222052677;9.324892073122347;19.54395580919828
