;Time;Thrust;Pressure1;Pressure2;Weight;Current;Voltage;Battery12V;Battery24V
0;0.0;-161;-1291;-1452;-445;-0.00018750572222052677;-0.00018750572222052677;1.8139303567613758;3.2856627704702905
1;0.01757359504699707;-323;-1291;-1452;-445;-0.00018750572222052677;-0.00018750572222052677;1.8041800592059083;3.2851002533036286
2;0.03500795364379883;-323;-1291;-1452;-445;-0.00018750572222052677;-0.00018750572222052677;1.8126178167058322;3.2811626331369976
3;0.052640676498413086;-323;-1452;-1452;-445;-0.00018750572222052677;-0.00018750572222052677;1.814305368205817;3.2821001617481
4;0.07039737701416016;-323;-1291;-1452;-445;0.0;-0.00018750572222052677;1.8133678395947144;3.279100070192572
5;0.08785200119018555;-323;-1452;-1452;-445;-0.00018750572222052677;-0.00018750572222052677;1.8105552537614062;3.2800375988036743
6;0.10570836067199707;0;-1291;-1452;-445;-0.00018750572222052677;-0.00018750572222052677;1.811117770928068;3.2824751731925415
7;0.1233682632446289;0;-1291;-1452;-445;-0.00018750572222052677;-0.00018750572222052677;1.8120552995391705;3.286600299081393
8;0.14115333557128906;0;-1291;-1452;-445;0.0;0.0;1.8124303109836117;3.2819126560258796
9;0.15859246253967285;0;-1291;-1452;-445;0.0;-0.00018750572222052677;1.8165554368724632;3.2819126560258796
10;0.17633748054504395;0;-1291;-1452;-445;0.0;0.0;1.815805413983581;3.2841627246925262
11;0.19396233558654785;0;-1452;-1452;-445;-0.00018750572222052677;0.0;1.8178679769280068;3.2807876216925567
12;0.2117166519165039;0;-1291;-1452;-445;-0.00018750572222052677;-0.00018750572222052677;1.815805413983581;3.282287667470321
13;0.22915291786193848;0;-1291;-1452;-445;-0.00018750572222052677;0.0;1.8169304483169042;3.2804126102481153
14;0.24654674530029297;0;-1452;-1452;-445;-0.00018750572222052677;0.0;1.8165554368724632;3.282287667470321
15;0.2640199661254883;0;-1452;-1452;-445;-0.00018750572222052677;-0.00018750572222052677;1.8135553453169349;3.2796625873592333
16;0.2813720703125;0;-1291;-1452;-445;-0.00018750572222052677;-0.00018750572222052677;1.815055391094699;3.2824751731925415
17;0.29901885986328125;0;-1452;-1452;-445;-0.00018750572222052677;-0.00018750572222052677;1.8135553453169349;3.2811626331369976
18;0.31673312187194824;0;-1291;-1452;-445;-0.00018750572222052677;-0.00037501144444105353;1.8126178167058322;3.2807876216925567
19;0.33459997177124023;0;-1291;-1452;-445;-0.00018750572222052677;0.0;1.8148678853724785;3.281350138859218
20;0.35242629051208496;0;-1291;-1452;-445;-0.00018750572222052677;0.0;1.8088677022614215;3.285287759025849
21;0.36982131004333496;0;-1291;-1452;-445;-0.00018750572222052677;-0.00037501144444105353;1.8171179540391247;3.2847252418591877
22;0.3873019218444824;0;-1291;-1452;-445;-0.00037501144444105353;0.0;1.8131803338724937;3.283037690359203
23;0.40460681915283203;0;-1291;-1452;-445;-0.00037501144444105353;-0.00037501144444105353;1.8184304940946685;3.2828501846369824
24;0.42208194732666016;0;-1291;-1452;-445;-0.00018750572222052677;-0.00018750572222052677;1.8146803796502577;3.284912747581408
25;0.43961048126220703;323;-1291;-1452;-445;-0.00018750572222052677;-0.00018750572222052677;1.8171179540391247;3.281350138859218
26;0.4572567939758301;323;-1291;-1452;-445;-0.00037501144444105353;-0.00018750572222052677;1.8159929197058016;3.284537736136967
27;0.47518134117126465;323;-1291;-1452;-445;-0.00018750572222052677;-0.00018750572222052677;1.8144928739280375;3.286225287636952
28;0.49260520935058594;484;-1291;-1452;-445;-0.00037501144444105353;0.0;1.8156179082613604;3.283037690359203
29;0.5100646018981934;646;-1452;-1452;-445;-0.00018750572222052677;-0.00018750572222052677;1.8105552537614062;3.2856627704702905
30;0.527524471282959;646;-1291;-1452;-445;-0.00018750572222052677;-0.00018750572222052677;1.8131803338724937;3.2807876216925567
31;0.5450162887573242;646;-1291;-1452;-445;-0.00018750572222052677;0.0;1.8129928281502732;3.2811626331369976
32;0.5626764297485352;646;-1291;-1452;-445;-0.00018750572222052677;-0.00018750572222052677;1.8173054597613454;3.280975127414777
33;0.580146074295044;646;-1291;-1452;-445;-0.00018750572222052677;-0.00018750572222052677;1.8120552995391705;3.2792875759147924
34;0.5975823402404785;646;-1291;-1452;-445;-0.00018750572222052677;-0.00018750572222052677;1.8135553453169349;3.2819126560258796
35;0.6150803565979004;807;-1291;-1452;-445;-0.00018750572222052677;-0.00018750572222052677;1.8171179540391247;3.2815376445814386
36;0.6322932243347168;968;-1452;-1452;-445;-0.00018750572222052677;-0.00018750572222052677;1.8113052766502884;3.2847252418591877
37;0.6498129367828369;968;-1291;-1452;-445;-0.00018750572222052677;-0.00037501144444105353;1.8180554826502273;3.2841627246925262
38;0.6672961711883545;968;-1291;-1452;-445;-0.00018750572222052677;0.0;1.81543040253914;3.2819126560258796
39;0.6847920417785645;968;-1452;-1452;-445;-0.00018750572222052677;-0.00018750572222052677;1.8148678853724785;3.2856627704702905
40;0.7021687030792236;1291;-1291;-1452;-445;-0.00018750572222052677;-0.00018750572222052677;1.815805413983581;3.2851002533036286
41;0.7196643352508545;1291;-1291;-1452;-445;-0.00018750572222052677;-0.00018750572222052677;1.816180425428022;3.282287667470321
42;0.7372720241546631;1291;-1452;-1452;-445;-0.00037501144444105353;0.0;1.8152428968169194;3.2856627704702905
43;0.7547345161437988;1291;-1452;-1452;-445;-0.00018750572222052677;-0.00018750572222052677;1.8193680227057711;3.2804126102481153
44;0.7726693153381348;1614;-1291;-1452;-445;-0.00018750572222052677;-0.00018750572222052677;1.8176804712057864;3.2828501846369824
45;0.7900753021240234;1614;-1291;-1452;-445;-0.00018750572222052677;-0.00018750572222052677;1.8139303567613758;3.2839752189703058
46;0.8076157569885254;1614;-1291;-1452;-445;0.0;-0.00018750572222052677;1.8120552995391705;3.2837877132480853
47;0.8248708248138428;1614;-1291;-1452;-445;-0.00018750572222052677;-0.00018750572222052677;1.812242805261391;3.2811626331369976
48;0.8425736427307129;1937;-1291;-1452;-445;-0.00037501144444105353;-0.00018750572222052677;1.81543040253914;3.285850276192511
49;0.8601107597351074;1937;-1291;-1452;-445;-0.00018750572222052677;-0.00018750572222052677;1.8131803338724937;3.284912747581408
50;0.8775241374969482;1937;-1452;-1452;-445;-0.00018750572222052677;-0.00037501144444105353;1.8128053224280527;3.279850093081454
51;0.8951680660247803;2259;-1291;-1452;-445;-0.00018750572222052677;-0.00018750572222052677;1.814305368205817;3.283412701803644
52;0.9127671718597412;2259;-1291;-1452;-445;-0.00018750572222052677;-0.00018750572222052677;1.8105552537614062;3.2828501846369824
53;0.9307219982147217;2259;-1291;-1452;-445;-0.00018750572222052677;-0.00018750572222052677;1.8114927823725089;3.2811626331369976
54;0.9480686187744141;2582;-1291;-1452;-445;-0.00037501144444105353;0.0;1.8174929654835659;3.2837877132480853
55;0.9653561115264893;2582;-1291;-1452;-445;0.0;-0.00018750572222052677;1.81543040253914;3.2804126102481153
56;0.983088493347168;2582;-1452;-1452;-445;0.0;-0.00037501144444105353;1.81543040253914;3.283412701803644
57;1.000950574874878;2582;-1291;-1452;-445;-0.00018750572222052677;-0.00018750572222052677;1.811117770928068;3.2815376445814386
58;1.0186452865600586;2582;-1291;-1452;-445;0.0;-0.00018750572222052677;1.8174929654835659;3.2804126102481153
59;1.0360348224639893;2905;-1291;-1452;-445;-0.00018750572222052677;-0.00018750572222052677;1.8178679769280068;3.2815376445814386
60;1.0534367561340332;2905;-1291;-1452;-445;0.0;0.0;1.8103677480391858;3.2792875759147924
61;1.071599006652832;2905;-1291;-1452;-445;-0.00018750572222052677;-0.00018750572222052677;1.8152428968169194;3.2856627704702905
62;1.0893332958221436;2905;-1291;-1452;-445;-0.00018750572222052677;0.0;1.8131803338724937;3.280600115970336
63;1.106722116470337;2905;-1452;-1452;-445;0.0;0.0;1.81543040253914;3.280975127414777
64;1.12436842918396;2905;-1291;-1452;-445;-0.00018750572222052677;-0.00018750572222052677;1.8131803338724937;3.2824751731925415
65;1.1425178050994873;2905;-1291;-1452;-445;-0.00018750572222052677;-0.00018750572222052677;1.8133678395947144;3.2832251960814234
66;1.1602447032928467;2905;-1291;-1452;-445;-0.00018750572222052677;-0.00018750572222052677;1.816180425428022;3.2796625873592333
67;1.1776363849639893;3228;-1291;-1452;-445;0.0;0.0;1.8124303109836117;3.2796625873592333
68;1.1953206062316895;3228;-1291;-1452;-445;-0.00018750572222052677;0.0;1.8028675191503647;3.279850093081454
69;1.212615966796875;3228;-1291;-1452;-445;-0.00018750572222052677;-0.00018750572222052677;1.8148678853724785;3.282662678914762
70;1.230301856994629;3228;-1291;-1452;-445;-0.00018750572222052677;0.0;1.8120552995391705;3.2807876216925567
71;1.247812271118164;3228;-1291;-1452;-445;-0.00018750572222052677;-0.00018750572222052677;1.8094302194280831;3.2804126102481153
72;1.2654080390930176;3228;-1291;-1452;-445;-0.00018750572222052677;-0.00037501144444105353;1.8109302652058474;3.2745999328592794
73;1.2829618453979492;3228;-1291;-1452;-445;-0.00018750572222052677;-0.00018750572222052677;1.8129928281502732;3.2796625873592333
74;1.3006575107574463;3228;-1291;-1452;-445;-0.00018750572222052677;-0.00018750572222052677;1.8126178167058322;3.281725150303659
75;1.3181400299072266;3228;-1291;-1452;-445;-0.00018750572222052677;-0.00018750572222052677;1.8188055055391095;3.2837877132480853
76;1.335561990737915;3228;-1291;-1452;-445;0.0;-0.00018750572222052677;1.8159929197058016;3.282287667470321
77;1.3533859252929688;3228;-1291;-1452;-445;-0.00018750572222052677;-0.00037501144444105353;1.8141178624835965;3.281725150303659
78;1.3713326454162598;3228;-1291;-1452;-445;-0.00018750572222052677;0.0;1.8124303109836117;3.2832251960814234
79;1.3886957168579102;3228;-1291;-1452;-445;-0.00018750572222052677;-0.00018750572222052677;1.8146803796502577;3.278912564470351
80;1.4060864448547363;3228;-1291;-1452;-445;-0.00018750572222052677;-0.00037501144444105353;1.8148678853724785;3.2837877132480853
81;1.4238476753234863;3228;-1291;-1452;-445;0.0;-0.00018750572222052677;1.8099927365947448;3.2824751731925415
82;1.4411489963531494;3228;-1291;-1452;-445;-0.00018750572222052677;-0.00018750572222052677;1.8113052766502884;3.280600115970336
83;1.4586155414581299;3228;-1452;-1452;-445;0.0;-0.00018750572222052677;1.8133678395947144;3.2841627246925262
84;1.476036548614502;3228;-1291;-1452;-445;-0.00018750572222052677;-0.00018750572222052677;1.815805413983581;3.283412701803644
85;1.4934885501861572;3228;-1291;-1452;-445;-0.00018750572222052677;0.0;1.8178679769280068;3.280975127414777
86;1.5108227729797363;3228;-1291;-1452;-445;-0.00018750572222052677;0.0;1.8038050477614673;3.2819126560258796
87;1.5277981758117676;3228;-1452;-1452;-445;0.0;-0.00018750572222052677;1.8107427594836267;3.272724875637074
88;1.5451395511627197;3228;-1452;-1452;-445;-0.00018750572222052677;-0.00018750572222052677;1.8148678853724785;3.2753499557481613
89;1.562730312347412;3228;-1452;-1452;-445;-0.00018750572222052677;-0.00018750572222052677;1.8026800134281442;3.2725373699148537
90;1.5798842906951904;3228;-1291;-1452;-445;-0.00018750572222052677;-0.00037501144444105353;1.8026800134281442;3.2804126102481153
91;1.5971691608428955;3389;-1291;-1452;-445;-0.00018750572222052677;-0.00018750572222052677;1.797992370372631;3.288662862025819
92;1.614504098892212;3389;-1291;-1452;-445;-0.00018750572222052677;-0.00018750572222052677;1.7991174047059542;3.2832251960814234
93;1.631833791732788;3389;-1291;-1452;-445;-0.00018750572222052677;-0.00018750572222052677;1.8156179082613604;3.286975310525834
94;1.6494276523590088;3550;-1452;-1452;-445;-0.00018750572222052677;-0.00018750572222052677;1.8092427137058626;3.2856627704702905
95;1.6664764881134033;3550;-1291;-1452;-445;-0.00018750572222052677;-0.00018750572222052677;1.8159929197058016;3.2804126102481153
96;1.6837396621704102;3550;-1291;-1452;-445;-0.00037501144444105353;0.0;1.8174929654835659;3.28547526474807
97;1.7011210918426514;3550;-1291;-1452;-445;-0.00018750572222052677;-0.00018750572222052677;1.8137428510391553;3.2819126560258796
98;1.7185249328613281;3550;-1291;-1452;-445;0.0;-0.00018750572222052677;1.8139303567613758;3.286225287636952
99;1.736194133758545;3550;-1291;-1452;-445;-0.00018750572222052677;-0.00037501144444105353;1.814305368205817;3.282662678914762
100;1.7536683082580566;3550;-1291;-1452;-445;-0.00018750572222052677;-0.00018750572222052677;1.814305368205817;3.284537736136967
101;1.771073818206787;3550;-1291;-1452;-445;-0.00018750572222052677;0.0;1.8146803796502577;3.2828501846369824
102;1.78847336769104;3550;-1291;-1452;-445;0.0;-0.00018750572222052677;1.8159929197058016;3.2824751731925415
103;1.8063461780548096;3550;-1291;-1452;-445;-0.00018750572222052677;-0.00018750572222052677;1.8144928739280375;3.2815376445814386
104;1.823533058166504;3550;-1291;-1452;-445;-0.00018750572222052677;-0.00018750572222052677;1.8144928739280375;3.2841627246925262
105;1.840693473815918;3550;-1291;-1452;-445;-0.00018750572222052677;-0.00018750572222052677;1.8113052766502884;3.282287667470321
106;1.858062744140625;3550;-1291;-1452;-445;-0.00018750572222052677;-0.00018750572222052677;1.8169304483169042;3.2832251960814234
107;1.8758792877197266;3550;-1452;-1452;-445;-0.00018750572222052677;-0.00018750572222052677;1.815805413983581;3.281350138859218
108;1.8933212757110596;3550;-1291;-1452;-445;-0.00037501144444105353;0.0;1.815805413983581;3.2847252418591877
109;1.910679578781128;3550;-1291;-1452;-445;-0.00018750572222052677;-0.00018750572222052677;1.8109302652058474;3.2828501846369824
110;1.927983045578003;3550;-1291;-1452;-445;-0.00018750572222052677;-0.00018750572222052677;1.8133678395947144;3.2811626331369976
111;1.9459714889526367;3550;-1452;-1452;-445;-0.00018750572222052677;-0.00018750572222052677;1.8105552537614062;3.285287759025849
112;1.9634432792663574;3550;-1291;-1452;-445;-0.00018750572222052677;0.0;1.8141178624835965;3.2821001617481
113;1.9806766510009766;3550;-1291;-1452;-445;-0.00018750572222052677;-0.00018750572222052677;1.811117770928068;3.28547526474807
114;1.9977996349334717;3550;-1291;-1452;-445;-0.00018750572222052677;-0.00018750572222052677;1.815055391094699;3.285287759025849
115;2.0149753093719482;3550;-1452;-1452;-445;-0.00018750572222052677;-0.00018750572222052677;1.8156179082613604;3.2832251960814234
116;2.032604932785034;3550;-1452;-1452;-445;-0.00018750572222052677;-0.00018750572222052677;1.8146803796502577;3.2847252418591877
117;2.0500619411468506;3228;-1291;-1452;-445;0.0;-0.00018750572222052677;1.8165554368724632;3.2836002075258643
118;2.0675086975097656;3228;-1452;-1452;-445;-0.00018750572222052677;-0.00018750572222052677;1.8103677480391858;3.282287667470321
119;2.0849640369415283;3228;-1291;-1452;-445;-0.00018750572222052677;-0.00018750572222052677;1.8107427594836267;3.277787530137028
120;2.102569341659546;3228;-1291;-1452;-445;-0.00018750572222052677;-0.00018750572222052677;1.815055391094699;3.2821001617481
121;2.1198222637176514;3228;-1291;-1452;-445;-0.00018750572222052677;0.0;1.8139303567613758;3.2843502304147467
122;2.137239456176758;3228;-1291;-1452;-445;-0.00018750572222052677;-0.00018750572222052677;1.8114927823725089;3.2843502304147467
123;2.154668092727661;3228;-1291;-1452;-445;-0.00018750572222052677;-0.00018750572222052677;1.8173054597613454;3.2804126102481153
124;2.1725893020629883;3228;-1291;-1452;-445;-0.00018750572222052677;-0.00018750572222052677;1.8148678853724785;3.282287667470321
125;2.189980983734131;3228;-1291;-1452;-445;-0.00018750572222052677;-0.00018750572222052677;1.8165554368724632;3.281350138859218
126;2.2071635723114014;3228;-1291;-1452;-445;-0.00018750572222052677;0.0;1.8092427137058626;3.2802251045258948
127;2.224278211593628;3228;-1452;-1452;-445;-0.00018750572222052677;-0.00018750572222052677;1.8120552995391705;3.280600115970336
128;2.241405487060547;3228;-1452;-1452;-445;-0.00018750572222052677;-0.00018750572222052677;1.8171179540391247;3.2824751731925415
129;2.2590479850769043;3389;-1291;-1452;-445;0.0;-0.00018750572222052677;1.8193680227057711;3.281725150303659
130;2.276520013809204;3550;-1291;-1452;-445;-0.00018750572222052677;-0.00018750572222052677;1.808680196539201;3.281350138859218
131;2.294419527053833;3550;-1291;-1452;-445;-0.00018750572222052677;-0.00018750572222052677;1.8178679769280068;3.282287667470321
132;2.312347650527954;3550;-1291;-1452;-445;-0.00018750572222052677;-0.00018750572222052677;1.816180425428022;3.2811626331369976
133;2.330047845840454;3389;-1291;-1452;-445;-0.00037501144444105353;-0.00018750572222052677;1.8128053224280527;3.2843502304147467
134;2.347604274749756;3550;-1291;-1452;-445;0.0;0.0;1.8131803338724937;3.284912747581408
135;2.365013360977173;3550;-1291;-1452;-445;-0.00018750572222052677;-0.00018750572222052677;1.8137428510391553;3.2740374156926175
136;2.3824543952941895;3550;-1291;-1452;-445;-0.00018750572222052677;-0.00018750572222052677;1.8129928281502732;3.2807876216925567
137;2.4001898765563965;3550;-1452;-1452;-445;-0.00037501144444105353;0.0;1.8126178167058322;3.283412701803644
138;2.4178645610809326;3550;-1291;-1452;-445;-0.00018750572222052677;-0.00037501144444105353;1.8128053224280527;3.282287667470321
139;2.435323476791382;3550;-1452;-1452;-445;-0.00018750572222052677;-0.00018750572222052677;1.8137428510391553;3.2828501846369824
140;2.452826976776123;3550;-1291;-1452;-445;-0.00018750572222052677;-0.00018750572222052677;1.8148678853724785;3.2851002533036286
141;2.4704649448394775;3550;-1291;-1452;-445;-0.00018750572222052677;-0.00018750572222052677;1.811117770928068;3.283412701803644
142;2.4878010749816895;3550;-1291;-1452;-445;-0.00018750572222052677;-0.00037501144444105353;1.8176804712057864;3.2839752189703058
143;2.50520396232605;3873;-1291;-1452;-445;-0.00018750572222052677;0.0;1.8167429425946837;3.281350138859218
144;2.5226197242736816;3873;-1291;-1452;-445;-0.00037501144444105353;-0.00018750572222052677;1.8156179082613604;3.285850276192511
145;2.540301561355591;3873;-1291;-1452;-445;-0.00018750572222052677;-0.00018750572222052677;1.8094302194280831;3.281350138859218
146;2.5578081607818604;3873;-1291;-1452;-445;-0.00018750572222052677;-0.00018750572222052677;1.8131803338724937;3.2839752189703058
147;2.5752859115600586;3873;-1452;-1452;-445;0.0;-0.00018750572222052677;1.8141178624835965;3.2839752189703058
148;2.592961072921753;3873;-1291;-1452;-445;-0.00018750572222052677;0.0;1.815055391094699;3.2837877132480853
149;2.610854387283325;3873;-1291;-1452;-445;-0.00018750572222052677;0.0;1.816180425428022;3.284537736136967
150;2.628331184387207;3873;-1291;-1452;-445;-0.00037501144444105353;-0.00018750572222052677;1.8109302652058474;3.2864127933591725
151;2.6457455158233643;3873;-1452;-1452;-445;-0.00018750572222052677;-0.00018750572222052677;1.8141178624835965;3.280600115970336
152;2.663274049758911;3712;-1291;-1452;-445;-0.00018750572222052677;-0.00037501144444105353;1.814305368205817;3.2843502304147467
153;2.680654287338257;3550;-1291;-1452;-445;-0.00037501144444105353;-0.00037501144444105353;1.8131803338724937;3.282287667470321
154;2.698091983795166;3550;-1291;-1452;-445;-0.00018750572222052677;0.0;1.8124303109836117;3.2837877132480853
155;2.715559482574463;3550;-1291;-1452;-445;-0.00018750572222052677;-0.00018750572222052677;1.8141178624835965;3.2824751731925415
156;2.7330033779144287;3228;-1291;-1452;-445;0.0;0.0;1.81543040253914;3.2759124729148232
157;2.7504045963287354;3228;-1291;-1452;-445;-0.00018750572222052677;-0.00018750572222052677;1.8124303109836117;3.279850093081454
158;2.767853021621704;2905;-1452;-1452;-445;-0.00018750572222052677;-0.00018750572222052677;1.8133678395947144;3.280975127414777
159;2.785280227661133;2582;-1291;-1452;-445;-0.00018750572222052677;-0.00018750572222052677;1.8144928739280375;3.2839752189703058
160;2.8026130199432373;2582;-1291;-1452;-445;-0.00018750572222052677;-0.00018750572222052677;1.8163679311502425;3.2804126102481153
161;2.8202030658721924;2259;-1452;-1452;-445;-0.00037501144444105353;0.0;1.8148678853724785;3.281350138859218
162;2.8381149768829346;1937;-1291;-1452;-445;-0.00018750572222052677;-0.00018750572222052677;1.8103677480391858;3.2821001617481
