;Time;Thrust;Pressure1;Pressure2;Weight;Current;Voltage;Battery12V;Battery24V
0;0.001;-323;-1291;-1452;-445;-0.00018750572222052677;-0.00018750572222052677;2.117314615314188;3.6342359080782494
1;0.02;-323;-1291;-1452;-445;0.0;-0.00018750572222052677;2.1160020752586446;3.6331108737449265
2;0.039;-323;-1291;-1452;-445;-0.00018750572222052677;-0.00018750572222052677;2.109064363536485;3.633298379467147
3;0.059;-323;-1291;-1452;-445;-0.00018750572222052677;-0.00018750572222052677;2.1167520981475265;3.6312358165227208
4;0.078;-323;-1291;-1452;-445;-0.00018750572222052677;-0.00018750572222052677;2.1188146610919523;3.633673390911588
5;0.097;-323;-1291;-1452;-445;-0.00037501144444105353;0.0;2.11806463820307;3.633298379467147
6;0.116;-323;-1291;-1452;-445;-0.00018750572222052677;0.0;2.1165645924253056;3.6310483108005003
7;0.134;-323;-1291;-1452;-445;-0.00018750572222052677;0.0;2.113564500869778;3.6331108737449265
8;0.153;-323;-1291;-1452;-445;-0.00018750572222052677;0.0;2.118627155369732;3.633298379467147
9;0.172;-323;-1291;-1452;-445;-0.00037501144444105353;0.0;2.1152520523697627;3.629173253578295
10;0.191;-323;-1291;-1452;-445;-0.00018750572222052677;0.0;2.1171271095919675;3.633673390911588
11;0.21;-323;-1291;-1452;-445;-0.00018750572222052677;-0.00018750572222052677;2.1188146610919523;3.6317983336893827
12;0.228;-323;-1291;-1452;-445;-0.00018750572222052677;-0.00018750572222052677;2.115439558091983;3.632923368022706
13;0.247;-323;-1291;-1452;-445;-0.00018750572222052677;-0.00018750572222052677;2.115814569536424;3.6321733451338236
14;0.265;-323;-1291;-1452;-445;-0.00037501144444105353;-0.00018750572222052677;2.1100018921475874;3.6321733451338236
15;0.285;-323;-1291;-1452;-445;-0.00018750572222052677;-0.00018750572222052677;2.1163770867030856;3.633673390911588
16;0.306;-323;-1291;-1452;-445;-0.00018750572222052677;-0.00018750572222052677;2.113564500869778;3.629173253578295
17;0.326;-323;-1291;-1452;-445;-0.00018750572222052677;-0.00018750572222052677;2.1178771324808494;3.633298379467147
18;0.347;-323;-1291;-1452;-445;-0.00037501144444105353;-0.00018750572222052677;2.110376903592029;3.631985839411603
19;0.367;-323;-1291;-1452;-445;-0.00018750572222052677;-0.00018750572222052677;2.1128144779808955;3.6357359538560137
20;0.387;-323;-1291;-1452;-445;-0.00018750572222052677;-0.00018750572222052677;2.117314615314188;3.633673390911588
21;0.406;-323;-1291;-1452;-445;-0.00018750572222052677;-0.00018750572222052677;2.119564683980834;3.6334858851893674
22;0.424;-323;-1291;-1452;-445;-0.00018750572222052677;-0.00018750572222052677;2.117314615314188;3.634048402356029
23;0.443;-323;-1291;-1452;-445;-0.0005625171666615803;-0.00037501144444105353;2.1160020752586446;3.629173253578295
24;0.462;-323;-1291;-1452;-445;-0.00018750572222052677;-0.00018750572222052677;2.115814569536424;3.628985747856075
25;0.481;-323;-1291;-1452;-445;0.0;-0.00018750572222052677;2.1171271095919675;3.63442341380047
26;0.5;-323;-1291;-1452;-445;0.0;-0.00018750572222052677;2.1178771324808494;3.6347984252449113
27;0.518;-323;-1291;-1452;-445;-0.00018750572222052677;-0.00018750572222052677;2.116939603869747;3.6347984252449113
28;0.537;-323;-1291;-1452;-445;-0.00018750572222052677;0.0;2.1167520981475265;3.633298379467147
29;0.556;-323;-1291;-1452;-445;-0.00018750572222052677;-0.00018750572222052677;2.116189580980865;3.632360850856044
30;0.574;-323;-1291;-1452;-445;-0.00018750572222052677;-0.00018750572222052677;2.1190021668141727;3.631985839411603
31;0.593;-323;-1291;-1452;-445;0.0;-0.00018750572222052677;2.1188146610919523;3.633298379467147
32;0.612;-323;-1291;-1452;-445;0.0;-0.00018750572222052677;2.1175021210364084;3.632360850856044
33;0.63;-323;-1291;-1452;-445;-0.00037501144444105353;-0.00018750572222052677;2.1146895352031008;3.6314233222449417
34;0.649;-323;-1291;-1452;-445;-0.00018750572222052677;-0.00018750572222052677;2.1160020752586446;3.633298379467147
35;0.668;-323;-1291;-1452;-445;-0.00018750572222052677;0.0;2.1141270180364393;3.632923368022706
36;0.686;-323;-1291;-1452;-445;-0.00037501144444105353;-0.00018750572222052677;2.116189580980865;3.632923368022706
37;0.705;-323;-1291;-1452;-445;-0.00018750572222052677;-0.00018750572222052677;2.1197521897030547;3.63442341380047
38;0.723;-323;-1291;-1452;-445;0.0;-0.00018750572222052677;2.1165645924253056;3.6314233222449417
39;0.742;-323;-1291;-1452;-445;-0.00018750572222052677;-0.00037501144444105353;2.1146895352031008;3.629548265022736
40;0.761;-323;-1291;-1452;-445;0.0;0.0;2.1137520065919984;3.631610827967162
41;0.779;-323;-1291;-1452;-445;-0.00018750572222052677;-0.00018750572222052677;2.1156270638142036;3.6351734366893522
42;0.798;-323;-1291;-1452;-445;-0.00037501144444105353;0.0;2.1150645466475417;3.633673390911588
43;0.817;-323;-1291;-1452;-445;-0.00018750572222052677;-0.00037501144444105353;2.117689626758629;3.6349859309671317
44;0.835;-323;-1291;-1452;-445;-0.00018750572222052677;0.0;2.117314615314188;3.6331108737449265
45;0.854;-323;-1291;-1452;-445;-0.00018750572222052677;-0.00018750572222052677;2.1171271095919675;3.6334858851893674
46;0.873;-323;-1291;-1452;-445;-0.00018750572222052677;0.0;2.1146895352031008;3.632735862300485
47;0.891;-323;-1291;-1452;-445;0.0;0.0;2.1141270180364393;3.631985839411603
48;0.91;-323;-1291;-1452;-445;0.0;-0.00018750572222052677;2.118627155369732;3.6338608966338084
49;0.929;-323;-1291;-1452;-445;-0.00018750572222052677;-0.00018750572222052677;2.1148770409253212;3.6334858851893674
50;0.948;-323;-1291;-1452;-445;-0.00018750572222052677;-0.00037501144444105353;2.115439558091983;3.633673390911588
51;0.966;-323;-1291;-1452;-445;-0.00018750572222052677;-0.00018750572222052677;2.1188146610919523;3.633298379467147
52;0.985;-323;-1291;-1452;-445;-0.00018750572222052677;0.0;2.117314615314188;3.632735862300485
53;1.004;-323;-1291;-1452;-445;-0.00018750572222052677;0.0;2.1124394665364545;3.632923368022706
54;1.022;-323;-1291;-1452;-445;-0.00018750572222052677;-0.00018750572222052677;2.1148770409253212;3.6331108737449265
55;1.041;-323;-1291;-1452;-445;-0.00018750572222052677;-0.00018750572222052677;2.115814569536424;3.632735862300485
56;1.06;-323;-1291;-1452;-445;-0.00037501144444105353;-0.00018750572222052677;2.1178771324808494;3.6312358165227208
57;1.078;-323;-1291;-1452;-445;-0.00018750572222052677;0.0;2.1184396496475113;3.6314233222449417
58;1.097;-323;-1291;-1452;-445;0.0;-0.00018750572222052677;2.1182521439252904;3.634048402356029
59;1.116;-323;-1291;-1452;-445;-0.00018750572222052677;-0.00018750572222052677;2.116189580980865;3.633673390911588
60;1.135;-323;-1291;-1452;-445;-0.00037501144444105353;-0.00018750572222052677;2.113376995147557;3.6321733451338236
61;1.153;-323;-1291;-1452;-445;-0.00018750572222052677;-0.00018750572222052677;2.110189397869808;3.6314233222449417
62;1.173;-323;-1291;-1452;-445;-0.00018750572222052677;0.0;2.1175021210364084;3.634048402356029
63;1.191;-323;-1291;-1452;-445;0.0;-0.00018750572222052677;2.1178771324808494;3.6334858851893674
64;1.21;-323;-1291;-1452;-445;-0.00018750572222052677;-0.00018750572222052677;2.117689626758629;3.633298379467147
65;1.228;-323;-1291;-1452;-445;-0.00018750572222052677;0.0;2.1150645466475417;3.632735862300485
66;1.247;-323;-1291;-1452;-445;-0.00018750572222052677;-0.00018750572222052677;2.1178771324808494;3.6334858851893674
67;1.265;-323;-1291;-1452;-445;-0.00018750572222052677;-0.00018750572222052677;2.113564500869778;3.6321733451338236
68;1.284;-323;-1291;-1452;-445;0.0;-0.00018750572222052677;2.1163770867030856;3.6321733451338236
69;1.302;-323;-1291;-1452;-445;-0.00018750572222052677;-0.00018750572222052677;2.1165645924253056;3.633673390911588
70;1.321;-323;-1291;-1452;-445;-0.00018750572222052677;-0.00018750572222052677;2.117689626758629;3.6347984252449113
71;1.34;-323;-1291;-1452;-445;-0.00018750572222052677;-0.00018750572222052677;2.116939603869747;3.6351734366893522
72;1.358;-323;-1291;-1452;-445;-0.00037501144444105353;-0.00018750572222052677;2.1178771324808494;3.6342359080782494
73;1.377;-323;-1291;-1452;-445;-0.00018750572222052677;-0.00018750572222052677;2.117314615314188;3.63442341380047
74;1.396;-323;-1291;-1452;-445;-0.00018750572222052677;0.0;2.1160020752586446;3.6299232764671774
75;1.416;-323;-1291;-1452;-445;-0.00018750572222052677;-0.00018750572222052677;2.1193771782586137;3.6325483565782646
76;1.434;-323;-1291;-1452;-445;-0.00018750572222052677;-0.00018750572222052677;2.1171271095919675;3.6338608966338084
77;1.453;-323;-1291;-1452;-445;0.0;0.0;2.1171271095919675;3.6334858851893674
78;1.472;-323;-1291;-1452;-445;-0.00018750572222052677;0.0;2.1188146610919523;3.632735862300485
79;1.49;-323;-1291;-1452;-445;-0.00018750572222052677;-0.00018750572222052677;2.1190021668141727;3.6346109195226908
80;1.509;-323;-1291;-1452;-445;-0.00018750572222052677;-0.00018750572222052677;2.1146895352031008;3.6312358165227208
81;1.528;-323;-1291;-1452;-445;-0.00018750572222052677;-0.00018750572222052677;2.116939603869747;3.6321733451338236
82;1.546;-323;-1291;-1452;-445;-0.00018750572222052677;0.0;2.1188146610919523;3.634048402356029
83;1.565;-323;-1291;-1452;-445;-0.00037501144444105353;-0.00018750572222052677;2.1156270638142036;3.633673390911588
84;1.584;-323;-1291;-1452;-445;-0.00018750572222052677;-0.00018750572222052677;2.116189580980865;3.63086080507828
85;1.602;-323;-1291;-1452;-445;0.0;-0.00018750572222052677;2.1156270638142036;3.632923368022706
86;1.621;-323;-1291;-1452;-445;-0.00037501144444105353;-0.00018750572222052677;2.1148770409253212;3.6269231849116492
87;1.64;-323;-1291;-1452;-445;-0.00037501144444105353;-0.00018750572222052677;2.1160020752586446;3.632923368022706
88;1.659;-323;-1291;-1452;-445;-0.00037501144444105353;-0.00018750572222052677;2.1165645924253056;3.6342359080782494
89;1.678;-323;-1291;-1452;-445;-0.00018750572222052677;-0.00018750572222052677;2.1175021210364084;3.6338608966338084
90;1.696;-323;-1291;-1452;-445;-0.00018750572222052677;-0.00037501144444105353;2.1178771324808494;3.633298379467147
91;1.715;-323;-1291;-1452;-445;0.0;-0.00018750572222052677;2.1171271095919675;3.6346109195226908
92;1.734;-323;-1291;-1452;-445;-0.00018750572222052677;-0.00018750572222052677;2.117314615314188;3.6314233222449417
93;1.752;-323;-1291;-1452;-445;-0.00018750572222052677;0.0;2.112251960814234;3.6314233222449417
94;1.771;-323;-1291;-1452;-445;-0.00018750572222052677;0.0;2.115439558091983;3.6347984252449113
95;1.79;-323;-1291;-1452;-445;-0.00018750572222052677;0.0;2.1175021210364084;3.6338608966338084
96;1.809;-323;-1291;-1452;-445;-0.00018750572222052677;-0.00018750572222052677;2.1188146610919523;3.631985839411603
97;1.827;-323;-1291;-1452;-445;-0.00018750572222052677;-0.00018750572222052677;2.1184396496475113;3.6334858851893674
98;1.846;-323;-1291;-1452;-445;-0.00037501144444105353;-0.00018750572222052677;2.1165645924253056;3.6338608966338084
99;1.864;-323;-1291;-1452;-445;-0.00018750572222052677;-0.00018750572222052677;2.11806463820307;3.6302982879116183
100;1.883;-323;-1291;-1452;-445;-0.00018750572222052677;-0.00018750572222052677;2.117314615314188;3.632923368022706
101;1.902;-323;-1291;-1452;-445;-0.00018750572222052677;-0.00037501144444105353;2.117689626758629;3.634048402356029
102;1.92;-323;-1291;-1452;-445;-0.00037501144444105353;-0.00018750572222052677;2.11806463820307;3.635548448133793
103;1.939;-323;-1291;-1452;-445;-0.00018750572222052677;0.0;2.1178771324808494;3.6331108737449265
104;1.958;-323;-1291;-1452;-445;-0.00018750572222052677;-0.00018750572222052677;2.1167520981475265;3.63086080507828
105;1.976;-323;-1291;-1452;-445;-0.00018750572222052677;-0.00018750572222052677;2.115814569536424;3.6317983336893827
106;1.995;-323;-1291;-1452;-445;-0.00018750572222052677;-0.00018750572222052677;2.1160020752586446;3.6321733451338236
107;2.014;-323;-1291;-1452;-445;-0.00018750572222052677;0.0;2.115814569536424;3.633298379467147
108;2.032;-323;-1291;-1452;-445;-0.00018750572222052677;0.0;2.1160020752586446;3.6325483565782646
109;2.051;-323;-1291;-1452;-445;-0.00018750572222052677;0.0;2.1182521439252904;3.629548265022736
110;2.07;-323;-1291;-1452;-445;0.0;-0.00018750572222052677;2.118627155369732;3.633673390911588
111;2.088;-323;-1291;-1452;-445;-0.00018750572222052677;-0.00018750572222052677;2.1175021210364084;3.629173253578295
112;2.107;-323;-1291;-1452;-445;-0.00018750572222052677;0.0;2.115439558091983;3.634048402356029
113;2.126;-323;-1291;-1452;-445;-0.00018750572222052677;-0.00018750572222052677;2.1171271095919675;3.633673390911588
114;2.144;-323;-1291;-1452;-445;-0.00018750572222052677;-0.00018750572222052677;2.117689626758629;3.632923368022706
115;2.163;-323;-1291;-1452;-445;-0.00018750572222052677;0.0;2.1167520981475265;3.6346109195226908
116;2.182;-323;-1291;-1452;-445;-0.00018750572222052677;-0.00018750572222052677;2.1175021210364084;3.6338608966338084
117;2.201;-323;-1291;-1452;-445;-0.00018750572222052677;-0.00018750572222052677;2.117689626758629;3.6321733451338236
118;2.22;-323;-1291;-1452;-445;-0.00018750572222052677;-0.00018750572222052677;2.1175021210364084;3.6342359080782494
119;2.238;-323;-1291;-1452;-445;-0.00018750572222052677;-0.00037501144444105353;2.1152520523697627;3.63086080507828
120;2.257;-323;-1291;-1452;-445;-0.00018750572222052677;-0.00018750572222052677;2.1163770867030856;3.6317983336893827
121;2.275;-323;-1291;-1452;-445;-0.00018750572222052677;0.0;2.1160020752586446;3.6342359080782494
122;2.294;-323;-1291;-1452;-445;-0.00018750572222052677;0.0;2.1150645466475417;3.632923368022706
123;2.313;-323;-1291;-1452;-445;-0.00018750572222052677;-0.00018750572222052677;2.1178771324808494;3.6334858851893674
124;2.331;-323;-1291;-1452;-445;-0.00018750572222052677;-0.00018750572222052677;2.1167520981475265;3.631985839411603
125;2.35;-323;-1291;-1452;-445;-0.00018750572222052677;-0.00018750572222052677;2.116939603869747;3.6338608966338084
126;2.369;-323;-1291;-1452;-445;-0.00018750572222052677;-0.00018750572222052677;2.1190021668141727;3.631985839411603
127;2.387;-323;-1291;-1452;-445;0.0;-0.00018750572222052677;2.1165645924253056;3.6349859309671317
128;2.406;-323;-1291;-1452;-445;-0.00018750572222052677;0.0;2.1175021210364084;3.6342359080782494
129;2.425;-323;-1291;-1452;-445;-0.00018750572222052677;-0.00018750572222052677;2.116189580980865;3.629548265022736
130;2.444;-323;-1291;-1452;-445;-0.00018750572222052677;-0.00018750572222052677;2.11806463820307;3.632360850856044
131;2.462;-323;-1291;-1452;-445;0.0;-0.00037501144444105353;2.1156270638142036;3.6310483108005003
132;2.481;-323;-1291;-1452;-445;-0.00018750572222052677;-0.00018750572222052677;2.116189580980865;3.63442341380047
133;2.5;-323;-1291;-1452;-445;-0.00018750572222052677;-0.00018750572222052677;2.1165645924253056;3.6325483565782646
134;2.518;-323;-1291;-1452;-445;-0.00018750572222052677;-0.00037501144444105353;2.113939512314219;3.633298379467147
135;2.537;-323;-1291;-1452;-445;-0.00018750572222052677;0.0;2.1156270638142036;3.6274857020783107
136;2.556;-323;-1291;-1452;-445;-0.00018750572222052677;0.0;2.1167520981475265;3.6325483565782646
137;2.575;-323;-1291;-1452;-445;-0.00018750572222052677;-0.00018750572222052677;2.115814569536424;3.6299232764671774
138;2.593;-323;-1291;-1452;-445;-0.00037501144444105353;-0.00018750572222052677;2.115814569536424;3.6325483565782646
139;2.612;-323;-1291;-1452;-445;-0.00018750572222052677;-0.00037501144444105353;2.1175021210364084;3.6347984252449113
140;2.631;-323;-1291;-1452;-445;0.0;-0.00018750572222052677;2.1160020752586446;3.631610827967162
141;2.649;-323;-1291;-1452;-445;-0.00018750572222052677;-0.00018750572222052677;2.1160020752586446;3.632923368022706
142;2.668;-323;-1291;-1452;-445;0.0;-0.00018750572222052677;2.116939603869747;3.6325483565782646
143;2.686;-323;-1291;-1452;-445;-0.00037501144444105353;-0.00018750572222052677;2.1167520981475265;3.6293607593005155
144;2.705;-323;-1291;-1452;-445;-0.00018750572222052677;0.0;2.1160020752586446;3.6338608966338084
145;2.724;-323;-1291;-1452;-445;-0.00018750572222052677;-0.00018750572222052677;2.115814569536424;3.6331108737449265
146;2.743;-323;-1291;-1452;-445;-0.00018750572222052677;-0.00018750572222052677;2.1165645924253056;3.632360850856044
147;2.761;-323;-1291;-1452;-445;-0.00018750572222052677;-0.00018750572222052677;2.1148770409253212;3.632923368022706
148;2.78;-323;-1291;-1452;-445;0.0;-0.00018750572222052677;2.116939603869747;3.6338608966338084
149;2.799;-323;-1291;-1452;-445;-0.00018750572222052677;-0.00018750572222052677;2.1163770867030856;3.6331108737449265
150;2.817;-323;-1291;-1452;-445;-0.00018750572222052677;0.0;2.109814386425367;3.6312358165227208
151;2.838;-323;-1291;-1452;-445;-0.00037501144444105353;-0.00037501144444105353;2.1146895352031008;3.632735862300485
152;2.857;-323;-1291;-1452;-445;0.0;0.0;2.1163770867030856;3.634048402356029
153;2.875;-323;-1291;-1452;-445;-0.00018750572222052677;-0.00037501144444105353;2.1171271095919675;3.6310483108005003
154;2.894;-323;-1291;-1452;-445;-0.00018750572222052677;-0.00018750572222052677;2.1171271095919675;3.631610827967162
155;2.912;-323;-1291;-1452;-445;-0.00018750572222052677;-0.00018750572222052677;2.1145020294808803;3.633298379467147
156;2.931;-323;-1291;-1452;-445;-0.00018750572222052677;-0.00018750572222052677;2.117689626758629;3.6302982879116183
157;2.95;-323;-1291;-1452;-445;0.0;-0.00018750572222052677;2.1150645466475417;3.6302982879116183
158;2.968;-323;-1291;-1452;-445;-0.00018750572222052677;-0.00037501144444105353;2.116189580980865;3.632735862300485
159;2.987;-323;-1291;-1452;-445;-0.00018750572222052677;-0.00018750572222052677;2.117689626758629;3.6331108737449265
160;3.005;-323;-1291;-1452;-445;-0.00018750572222052677;-0.00018750572222052677;2.1182521439252904;3.634048402356029
161;3.024;-323;-1291;-1452;-445;-0.00018750572222052677;-0.00018750572222052677;2.116939603869747;3.6312358165227208
162;3.043;-323;-1291;-1452;-445;-0.00018750572222052677;0.0;2.116189580980865;3.6347984252449113
163;3.061;-323;-1291;-1452;-445;-0.00018750572222052677;-0.00018750572222052677;2.117689626758629;3.633298379467147
164;3.08;-323;-1291;-1452;-445;-0.00018750572222052677;-0.00018750572222052677;2.113564500869778;3.632360850856044
165;3.099;-323;-1291;-1452;-445;-0.00018750572222052677;-0.00018750572222052677;2.116189580980865;3.632735862300485
166;3.118;-323;-1291;-1452;-445;0.0;-0.00018750572222052677;2.1171271095919675;3.6321733451338236
167;3.136;-323;-1291;-1452;-445;-0.00018750572222052677;-0.00018750572222052677;2.113939512314219;3.633673390911588
168;3.155;-323;-1291;-1452;-445;-0.00018750572222052677;-0.00018750572222052677;2.1167520981475265;3.63086080507828
169;3.173;-323;-1291;-1452;-445;-0.00037501144444105353;-0.00018750572222052677;2.1167520981475265;3.631985839411603
170;3.192;-323;-1291;-1452;-445;0.0;-0.00037501144444105353;2.1178771324808494;3.634048402356029
171;3.21;-323;-1291;-1452;-445;-0.00037501144444105353;-0.00018750572222052677;2.1152520523697627;3.6293607593005155
172;3.229;-323;-1291;-1452;-445;-0.00018750572222052677;-0.00018750572222052677;2.1160020752586446;3.6314233222449417
173;3.249;-323;-1291;-1452;-445;-0.00018750572222052677;-0.00018750572222052677;2.1167520981475265;3.6353609424115727
174;3.267;-323;-1291;-1452;-445;-0.00018750572222052677;-0.00018750572222052677;2.1163770867030856;3.6342359080782494
175;3.286;-323;-1291;-1452;-445;0.0;-0.00018750572222052677;2.1163770867030856;3.631985839411603
176;3.305;-323;-1291;-1452;-445;-0.00018750572222052677;0.0;2.1156270638142036;3.6331108737449265
177;3.323;-323;-1291;-1452;-445;-0.00018750572222052677;0.0;2.115814569536424;3.63086080507828
178;3.342;-323;-1291;-1452;-445;-0.00018750572222052677;-0.00018750572222052677;2.1171271095919675;3.6321733451338236
179;3.36;-323;-1291;-1452;-445;0.0;-0.00018750572222052677;2.1175021210364084;3.6331108737449265
180;3.379;-323;-1291;-1452;-445;-0.00018750572222052677;-0.00018750572222052677;2.1160020752586446;3.6317983336893827
181;3.397;-323;-1291;-1452;-445;-0.00018750572222052677;-0.00018750572222052677;2.1145020294808803;3.6310483108005003
182;3.416;-323;-1291;-1452;-445;-0.00018750572222052677;0.0;2.1141270180364393;3.633298379467147
