;Time;Thrust;Pressure1;Pressure2;Weight;Current;Voltage;Battery12V;Battery24V
0;0.0;9.547062454695944;-7.162400000000001;-3.2087000000000003;0.42565816831486836;-0.00018750572222052677;-0.00018750572222052677;7.330352454603716;17.494011999877927
1;0.017460346221923828;9.547062454695944;-7.162400000000001;-3.2087000000000003;0.42565816831486836;-0.00018750572222052677;-0.00018750572222052677;7.314376967070528;17.47255196996979
2;0.035063982009887695;9.547062454695944;-7.162400000000001;-3.2087000000000003;0.42565816831486836;-0.00018750572222052677;-0.00018750572222052677;7.329553680227058;17.474595782341993
3;0.05253434181213379;9.547062454695944;-7.162400000000001;-3.2087000000000003;0.42565816831486836;-0.00018750572222052677;-0.00018750572222052677;7.347126716513565;17.46335481429487
4;0.07035398483276367;9.547062454695944;-7.162400000000001;-3.2087000000000003;0.42565816831486836;-0.00018750572222052677;-0.00018750572222052677;7.337541423993652;17.467442439039278
5;0.0877065658569336;9.547062454695944;-7.162400000000001;-3.2087000000000003;0.42565816831486836;-0.00018750572222052677;-0.00018750572222052677;7.323163485213782;17.471530063783685
6;0.1050727367401123;9.547062454695944;-7.162400000000001;-3.2087000000000003;0.42565816831486836;0.0;-0.00037501144444105353;7.344730393383586;17.455179564806055
7;0.12275552749633789;9.547062454695944;-7.162400000000001;-3.2087000000000003;0.42565816831486836;-0.00018750572222052677;-0.00018750572222052677;7.3215659364604635;17.48583675038911
8;0.14027166366577148;9.547062454695944;-7.162400000000001;-3.2087000000000003;0.42565816831486836;-0.00018750572222052677;-0.00018750572222052677;7.3399377471236305;17.492990093691827
9;0.15796446800231934;9.547062454695944;-7.162400000000001;-3.2087000000000003;0.42565816831486836;-0.00018750572222052677;0.0;7.324761033967101;17.48992437513352
10;0.17553424835205078;9.547062454695944;-7.162400000000001;-3.2087000000000003;0.42565816831486836;-0.00037501144444105353;-0.00037501144444105353;7.338340198370311;17.46948625141148
11;0.19298315048217773;9.547062454695944;-7.162400000000001;-3.2087000000000003;0.42565816831486836;0.0;0.0;7.331151228980375;17.48685865657521
12;0.21091556549072266;9.547062454695944;-7.162400000000001;-3.2087000000000003;0.42565816831486836;-0.00018750572222052677;0.0;7.349523039643544;17.46335481429487
13;0.22858810424804688;9.547062454695944;-7.162400000000001;-3.2087000000000003;0.42565816831486836;-0.00018750572222052677;-0.00018750572222052677;7.3215659364604635;17.492990093691827
14;0.24638676643371582;9.547062454695944;-7.162400000000001;-3.2087000000000003;0.42565816831486836;-0.00018750572222052677;-0.00018750572222052677;7.352718137150182;17.4817491256447
15;0.26391172409057617;9.547062454695944;-7.162400000000001;-3.2087000000000003;0.42565816831486836;-0.00018750572222052677;-0.00018750572222052677;7.35511446028016;17.477661500900297
16;0.2813401222229004;9.547062454695944;-7.162400000000001;-3.2087000000000003;0.42565816831486836;-0.00018750572222052677;0.0;7.354315685903501;17.492990093691827
17;0.2989528179168701;9.547062454695944;-7.162400000000001;-3.2087000000000003;0.42565816831486836;0.0;-0.00018750572222052677;7.32635858272042;17.475617688528096
18;0.31642985343933105;9.547062454695944;-7.162400000000001;-3.2087000000000003;0.42565816831486836;-0.00018750572222052677;0.0;7.351919362773522;17.477661500900297
19;0.33380961418151855;9.547062454695944;-7.162400000000001;-3.2087000000000003;0.42565816831486836;0.0;-0.00018750572222052677;7.360705880916775;17.4797053132725
20;0.35151076316833496;9.547062454695944;-8.1284;-3.2087000000000003;0.42565816831486836;-0.00018750572222052677;-0.00018750572222052677;7.338340198370311;17.459267189550463
21;0.3688395023345947;9.547062454695944;-7.162400000000001;-3.2087000000000003;0.42565816831486836;-0.00018750572222052677;-0.00018750572222052677;7.32715735709708;17.49094628131962
22;0.3863043785095215;9.547062454695944;-8.1284;-3.2087000000000003;0.42565816831486836;-0.00018750572222052677;-0.00018750572222052677;7.361504655293435;17.48992437513352
23;0.4039926528930664;9.547062454695944;-7.162400000000001;-3.2087000000000003;0.42565816831486836;-0.00018750572222052677;-0.00018750572222052677;7.335943875240333;17.455179564806055
24;0.42140746116638184;9.547062454695944;-7.162400000000001;-3.2087000000000003;0.42565816831486836;-0.00018750572222052677;-0.00018750572222052677;7.3239622595904414;17.475617688528096
25;0.4391629695892334;9.547062454695944;-7.162400000000001;-3.2087000000000003;0.42565816831486836;-0.00018750572222052677;-0.00018750572222052677;7.341535295876949;17.477661500900297
26;0.45673298835754395;9.547062454695944;-7.162400000000001;-3.2087000000000003;0.42565816831486836;-0.00018750572222052677;-0.00018750572222052677;7.351120588396863;17.495033906064027
27;0.474320650100708;9.547062454695944;-8.1284;-3.2087000000000003;0.42565816831486836;0.0;-0.00018750572222052677;7.3479254908902245;17.467442439039278
28;0.49163079261779785;9.547062454695944;-7.162400000000001;-3.2087000000000003;0.42565816831486836;-0.00018750572222052677;0.0;7.322364710837123;17.46948625141148
29;0.5099160671234131;9.547062454695944;-7.162400000000001;-3.2087000000000003;0.42565816831486836;0.0;-0.00018750572222052677;7.345529167760246;17.4817491256447
30;0.5273425579071045;9.547062454695944;-7.162400000000001;-3.2087000000000003;0.42565816831486836;0.0;-0.00018750572222052677;7.324761033967101;17.454157658619952
31;0.5446591377258301;9.547062454695944;-7.162400000000001;-3.2087000000000003;0.42565816831486836;-0.00018750572222052677;-0.00018750572222052677;7.339138972746971;17.46335481429487
32;0.5622847080230713;9.547062454695944;-7.162400000000001;-3.2087000000000003;0.42565816831486836;-0.00018750572222052677;-0.00018750572222052677;7.329553680227058;17.466420532853178
33;0.580369234085083;9.547062454695944;-7.162400000000001;-3.2087000000000003;0.42565816831486836;-0.00018750572222052677;-0.00018750572222052677;7.357510783410138;17.459267189550463
34;0.597667932510376;9.547062454695944;-7.162400000000001;-3.2087000000000003;0.42565816831486836;-0.00018750572222052677;-0.00018750572222052677;7.339138972746971;17.492990093691827
35;0.6153390407562256;9.547062454695944;-7.162400000000001;-3.2087000000000003;0.42565816831486836;-0.00018750572222052677;0.0;7.317572064577165;17.46233290810877
36;0.6327135562896729;9.547062454695944;-7.162400000000001;-3.2087000000000003;0.42565816831486836;-0.00018750572222052677;-0.00018750572222052677;7.351919362773522;17.477661500900297
37;0.650752067565918;9.547062454695944;-7.162400000000001;-3.2087000000000003;0.42565816831486836;-0.00018750572222052677;0.0;7.3239622595904414;17.483792938016908
38;0.668083667755127;9.547062454695944;-7.162400000000001;-3.2087000000000003;0.42565816831486836;-0.00037501144444105353;0.0;7.338340198370311;17.487880562761315
39;0.6855123043060303;9.547062454695944;-7.162400000000001;-3.2087000000000003;0.42565816831486836;0.0;-0.00018750572222052677;7.35511446028016;17.46948625141148
40;0.702869176864624;9.547062454695944;-7.162400000000001;-3.2087000000000003;0.42565816831486836;-0.00018750572222052677;-0.00018750572222052677;7.3535169115268415;17.470508157597585
41;0.7201850414276123;9.547062454695944;-7.162400000000001;-3.2087000000000003;0.42565816831486836;-0.00037501144444105353;-0.00018750572222052677;7.3479254908902245;17.466420532853178
42;0.7376871109008789;9.547062454695944;-7.162400000000001;-3.2087000000000003;0.42565816831486836;-0.00018750572222052677;-0.00037501144444105353;7.320767162083803;17.46437672048097
43;0.7549781799316406;9.547062454695944;-7.162400000000001;-3.2087000000000003;0.42565816831486836;-0.00037501144444105353;-0.00018750572222052677;7.32635858272042;17.478683407086397
44;0.7725636959075928;9.547062454695944;-7.162400000000001;-3.2087000000000003;0.42565816831486836;-0.00018750572222052677;0.0;7.329553680227058;17.458245283364363
45;0.7899420261383057;9.547062454695944;-7.162400000000001;-3.2087000000000003;0.42565816831486836;-0.00018750572222052677;-0.00037501144444105353;7.318370838953825;17.49605581225013
46;0.8073809146881104;9.547062454695944;-7.162400000000001;-3.2087000000000003;0.42565816831486836;-0.00018750572222052677;-0.00018750572222052677;7.32635858272042;17.498099624622334
47;0.8245999813079834;9.547062454695944;-8.1284;-3.2087000000000003;0.42565816831486836;-0.00018750572222052677;-0.00018750572222052677;7.3535169115268415;17.483792938016908
48;0.8419966697692871;9.547062454695944;-7.162400000000001;-3.2087000000000003;0.42565816831486836;0.0;-0.00018750572222052677;7.3535169115268415;17.4807272194586
49;0.8594787120819092;9.547062454695944;-7.162400000000001;-3.2087000000000003;0.42565816831486836;-0.00018750572222052677;-0.00018750572222052677;7.371089947813349;17.488902468947416
50;0.876798152923584;9.547062454695944;-7.162400000000001;-3.2087000000000003;0.42565816831486836;-0.00018750572222052677;0.0;7.361504655293435;17.474595782341993
51;0.8939766883850098;9.547062454695944;-7.162400000000001;-3.2087000000000003;0.42565816831486836;-0.00018750572222052677;-0.00018750572222052677;7.349523039643544;17.488902468947416
52;0.9113428592681885;9.547062454695944;-7.162400000000001;-3.2087000000000003;0.42565816831486836;0.0;-0.00018750572222052677;7.335943875240333;17.478683407086397
53;0.9285457134246826;9.547062454695944;-7.162400000000001;-3.2087000000000003;0.42565816831486836;-0.00018750572222052677;0.0;7.329553680227058;17.46335481429487
54;0.9456839561462402;9.547062454695944;-7.162400000000001;-3.2087000000000003;0.42565816831486836;0.0;-0.00018750572222052677;7.329553680227058;17.4797053132725
55;0.9626157283782959;9.547062454695944;-7.162400000000001;-3.2087000000000003;0.42565816831486836;-0.00018750572222052677;0.0;7.349523039643544;17.4807272194586
56;0.9801180362701416;9.547062454695944;-7.162400000000001;-3.2087000000000003;0.42565816831486836;-0.00018750572222052677;-0.00018750572222052677;7.359907106540116;17.494011999877927
57;0.9973909854888916;9.547062454695944;-7.162400000000001;-3.2087000000000003;0.42565816831486836;-0.00018750572222052677;-0.00018750572222052677;7.3215659364604635;17.476639594714197
58;1.0152192115783691;9.547062454695944;-7.162400000000001;-3.2087000000000003;0.42565816831486836;-0.00018750572222052677;0.0;7.327956131473739;17.45722337717826
59;1.0324220657348633;9.547062454695944;-8.1284;-3.2087000000000003;0.42565816831486836;0.0;-0.00018750572222052677;7.331151228980375;17.49707771843623
60;1.0496165752410889;9.547062454695944;-7.162400000000001;-3.2087000000000003;0.42565816831486836;-0.00018750572222052677;-0.00018750572222052677;7.3239622595904414;17.47357387615589
61;1.0671696662902832;9.547062454695944;-7.162400000000001;-3.2087000000000003;0.42565816831486836;0.0;-0.00018750572222052677;7.335943875240333;17.475617688528096
62;1.0850880146026611;9.547062454695944;-7.162400000000001;-3.2087000000000003;0.42565816831486836;-0.00037501144444105353;-0.00018750572222052677;7.343931619006928;17.47357387615589
63;1.1024651527404785;9.547062454695944;-7.162400000000001;-3.2087000000000003;0.42565816831486836;-0.00018750572222052677;-0.00018750572222052677;7.328754905850399;17.477661500900297
64;1.1200368404388428;9.547062454695944;-7.162400000000001;-3.2087000000000003;0.42565816831486836;0.0;-0.00018750572222052677;7.343132844630269;17.4817491256447
65;1.137425422668457;9.547062454695944;-7.162400000000001;-3.2087000000000003;0.42565816831486836;-0.00018750572222052677;-0.00018750572222052677;7.342334070253609;17.483792938016908
66;1.1547741889953613;9.547062454695944;-7.162400000000001;-3.2087000000000003;0.42565816831486836;-0.00018750572222052677;-0.00018750572222052677;7.331151228980375;17.458245283364363
67;1.1721556186676025;9.547062454695944;-7.162400000000001;-3.2087000000000003;0.42565816831486836;0.0;-0.00018750572222052677;7.359907106540116;17.475617688528096
68;1.1890192031860352;9.547062454695944;-7.162400000000001;-3.2087000000000003;0.42565816831486836;0.0;-0.00018750572222052677;7.3399377471236305;17.488902468947416
69;1.206160068511963;9.547062454695944;-7.162400000000001;-3.2087000000000003;0.42565816831486836;0.0;-0.00018750572222052677;7.323163485213782;17.48992437513352
70;1.223546028137207;9.547062454695944;-7.162400000000001;-3.2087000000000003;0.42565816831486836;0.0;-0.00018750572222052677;7.339138972746971;17.465398626667078
71;1.24070143699646;9.547062454695944;-7.162400000000001;-3.2087000000000003;0.42565816831486836;-0.00018750572222052677;-0.00018750572222052677;7.351919362773522;17.492990093691827
72;1.2581348419189453;9.547062454695944;-7.162400000000001;-3.2087000000000003;0.42565816831486836;-0.00018750572222052677;-0.00018750572222052677;7.346327942136906;17.51138440504166
73;1.2755682468414307;9.547062454695944;-7.162400000000001;-3.2087000000000003;0.42565816831486836;0.0;-0.00018750572222052677;7.342334070253609;17.46437672048097
74;1.292980670928955;9.547062454695944;-7.162400000000001;-3.2087000000000003;0.42565816831486836;-0.00018750572222052677;-0.00037501144444105353;7.32635858272042;17.458245283364363
75;1.3103361129760742;9.547062454695944;-7.162400000000001;-3.2087000000000003;0.42565816831486836;-0.00018750572222052677;-0.00018750572222052677;7.317572064577165;17.478683407086397
76;1.3276641368865967;9.547062454695944;-8.1284;-3.2087000000000003;0.42565816831486836;0.0;0.0;7.339138972746971;17.4797053132725
77;1.3450927734375;9.547062454695944;-7.162400000000001;-3.2087000000000003;0.42565816831486836;-0.00018750572222052677;0.0;7.338340198370311;17.46846434522538
78;1.3625025749206543;9.547062454695944;-7.162400000000001;-3.2087000000000003;0.42565816831486836;-0.00018750572222052677;-0.00018750572222052677;7.32715735709708;17.460289095736567
79;1.3801813125610352;9.547062454695944;-7.162400000000001;-3.2087000000000003;0.42565816831486836;0.0;-0.00018750572222052677;7.320767162083803;17.487880562761315
80;1.3973605632781982;9.547062454695944;-7.162400000000001;-3.2087000000000003;0.42565816831486836;-0.00018750572222052677;-0.00037501144444105353;7.343132844630269;17.476639594714197
81;1.4145121574401855;9.547062454695944;-7.162400000000001;-3.2087000000000003;0.42565816831486836;-0.00018750572222052677;-0.00018750572222052677;7.343132844630269;17.458245283364363
82;1.4319789409637451;9.547062454695944;-7.162400000000001;-3.2087000000000003;0.42565816831486836;-0.00018750572222052677;-0.00018750572222052677;7.331151228980375;17.471530063783685
83;1.4498863220214844;9.547062454695944;-8.1284;-3.2087000000000003;0.42565816831486836;0.0;-0.00018750572222052677;7.335943875240333;17.476639594714197
84;1.4673993587493896;9.547062454695944;-7.162400000000001;-3.2087000000000003;0.42565816831486836;-0.00018750572222052677;-0.00018750572222052677;7.325559808343761;17.482771031830808
85;1.484574556350708;9.547062454695944;-7.162400000000001;-3.2087000000000003;0.42565816831486836;-0.00037501144444105353;-0.00018750572222052677;7.32715735709708;17.45313575243385
86;1.5020086765289307;9.547062454695944;-7.162400000000001;-3.2087000000000003;0.42565816831486836;-0.00037501144444105353;-0.00018750572222052677;7.345529167760246;17.488902468947416
87;1.519921064376831;9.547062454695944;-7.162400000000001;-3.2087000000000003;0.42565816831486836;-0.00018750572222052677;-0.00018750572222052677;7.3343463264870135;17.488902468947416
88;1.5369019508361816;9.547062454695944;-7.162400000000001;-3.2087000000000003;0.42565816831486836;0.0;-0.00018750572222052677;7.338340198370311;17.445982409131137
89;1.5544121265411377;9.547062454695944;-7.162400000000001;-3.2087000000000003;0.42565816831486836;-0.00018750572222052677;-0.00018750572222052677;7.344730393383586;17.471530063783685
90;1.5718605518341064;9.547062454695944;-7.162400000000001;-3.2087000000000003;0.42565816831486836;-0.00018750572222052677;-0.00018750572222052677;7.335943875240333;17.477661500900297
91;1.5892605781555176;9.547062454695944;-7.162400000000001;-3.2087000000000003;0.42565816831486836;-0.00018750572222052677;0.0;7.318370838953825;17.458245283364363
92;1.6068229675292969;9.547062454695944;-7.162400000000001;-3.2087000000000003;0.42565816831486836;-0.00037501144444105353;-0.00018750572222052677;7.322364710837123;17.46846434522538
93;1.6243231296539307;9.547062454695944;-7.162400000000001;-3.2087000000000003;0.42565816831486836;-0.00018750572222052677;-0.00018750572222052677;7.327956131473739;17.487880562761315
94;1.6417038440704346;9.547062454695944;-7.162400000000001;-3.2087000000000003;0.42565816831486836;-0.00018750572222052677;0.0;7.329553680227058;17.467442439039278
95;1.6591236591339111;9.547062454695944;-7.162400000000001;-3.2087000000000003;0.42565816831486836;-0.00018750572222052677;-0.00018750572222052677;7.314376967070528;17.46335481429487
96;1.6765592098236084;9.547062454695944;-8.1284;-3.2087000000000003;0.42565816831486836;-0.00018750572222052677;-0.00018750572222052677;7.335943875240333;17.467442439039278
97;1.6940462589263916;9.547062454695944;-7.162400000000001;-3.2087000000000003;0.42565816831486836;0.0;-0.00018750572222052677;7.350321814020203;17.495033906064027
98;1.711444616317749;9.547062454695944;-8.1284;-3.2087000000000003;0.42565816831486836;-0.00018750572222052677;0.0;7.345529167760246;17.49707771843623
99;1.72892165184021;9.547062454695944;-7.162400000000001;-3.2087000000000003;0.42565816831486836;0.0;-0.00018750572222052677;7.342334070253609;17.458245283364363
100;1.7463068962097168;9.547062454695944;-8.1284;-3.2087000000000003;0.42565816831486836;-0.00018750572222052677;-0.00018750572222052677;7.32715735709708;17.451091940061648
101;1.7635290622711182;9.547062454695944;-7.162400000000001;-3.2087000000000003;0.42565816831486836;-0.00018750572222052677;-0.00018750572222052677;7.354315685903501;17.460289095736567
102;1.780968189239502;9.547062454695944;-7.162400000000001;-3.2087000000000003;0.42565816831486836;-0.00018750572222052677;0.0;7.351919362773522;17.483792938016908
103;1.7984259128570557;9.547062454695944;-8.1284;-3.2087000000000003;0.42565816831486836;-0.00018750572222052677;0.0;7.348724265266884;17.471530063783685
104;1.815274953842163;9.547062454695944;-7.162400000000001;-3.2087000000000003;0.42565816831486836;-0.00018750572222052677;0.0;7.34073652150029;17.466420532853178
105;1.8324413299560547;9.547062454695944;-7.162400000000001;-3.2087000000000003;0.42565816831486836;-0.00018750572222052677;-0.00018750572222052677;7.344730393383586;17.471530063783685
106;1.8499207496643066;9.547062454695944;-7.162400000000001;-3.2087000000000003;0.42565816831486836;-0.00037501144444105353;-0.00018750572222052677;7.335943875240333;17.459267189550463
107;1.8671119213104248;9.547062454695944;-7.162400000000001;-3.2087000000000003;0.42565816831486836;-0.00018750572222052677;0.0;7.32635858272042;17.461311001922667
108;1.8846733570098877;9.547062454695944;-7.162400000000001;-3.2087000000000003;0.42565816831486836;-0.00018750572222052677;-0.00018750572222052677;7.315974515823847;17.483792938016908
109;1.9016590118408203;9.547062454695944;-7.162400000000001;-3.2087000000000003;0.42565816831486836;0.0;0.0;7.357510783410138;17.470508157597585
110;1.9190216064453125;9.547062454695944;-7.162400000000001;-3.2087000000000003;0.42565816831486836;-0.00018750572222052677;-0.00018750572222052677;7.363102204046754;17.47255196996979
111;1.935973882675171;9.547062454695944;-8.1284;-3.2087000000000003;0.42565816831486836;-0.00018750572222052677;-0.00037501144444105353;7.332748777733695;17.421456660664695
112;1.9532816410064697;9.547062454695944;-7.162400000000001;-3.2087000000000003;0.42565816831486836;-0.00037501144444105353;-0.00018750572222052677;7.359907106540116;17.499121530808434
113;1.9707040786743164;9.547062454695944;-7.162400000000001;-3.2087000000000003;0.42565816831486836;-0.00018750572222052677;-0.00018750572222052677;7.332748777733695;17.478683407086397
