;Time;Thrust;Pressure1;Pressure2;Weight;Current;Voltage;Battery12V;Battery24V
0;0.0;0;-1291;-1452;-445;-0.00018750572222052677;0.0;2.188191778313547;3.588109500412
1;0.10000000000000009;0;-1291;-1452;-445;-0.00037501144444105353;-0.00018750572222052677;3.5851094088564714;3.582859340189825
2;0.19999999999999973;0;-1291;-1452;-445;-0.00037501144444105353;-0.00018750572222052677;2.1863167210913423;3.5851094088564714
3;0.30000000000000027;0;-1291;-1452;-445;-0.00037501144444105353;-0.00018750572222052677;2.1887542954802086;3.5860469374675743
4;0.3999999999999999;0;-1452;-1452;-445;-0.00037501144444105353;-0.00018750572222052677;2.1863167210913423;3.584359385967589
5;0.5000000000000004;0;-1291;-1452;-445;-0.00018750572222052677;-0.00018750572222052677;2.1872542497024443;3.587171971800897
6;0.6999999999999997;0;-1291;-1452;-445;-0.00037501144444105353;-0.00018750572222052677;2.1896918240913115;3.58454689168981
7;0.8000000000000003;0;-1291;-1452;-445;-0.00018750572222052677;0.0;2.1880042725913267;3.583984374523148
8;0.8999999999999999;0;-1291;-1452;-445;-0.00037501144444105353;-0.00018750572222052677;2.1872542497024443;3.5858594317453534
9;1.0000000000000004;0;-1291;-1452;-445;-0.00018750572222052677;-0.00018750572222052677;2.190254341257973;3.58454689168981
10;1.1;0;-1291;-1452;-445;-0.00018750572222052677;0.0;2.1880042725913267;3.5813592944120614
11;1.1999999999999997;0;-1291;-1452;-445;-0.00018750572222052677;-0.00018750572222052677;2.187441755424665;3.583609363078707
12;1.3000000000000003;0;-1291;-1452;-445;0.0;0.0;2.1861292153691214;3.5854844203009124
13;1.5000000000000004;0;-1291;-1452;-445;0.0;0.0;2.1868792382580033;3.5830468459120457
14;1.6;0;-1291;-1452;-445;-0.00018750572222052677;-0.00018750572222052677;2.1844416638691366;3.583609363078707
15;1.6999999999999997;0;-1291;-1452;-445;-0.00018750572222052677;-0.00018750572222052677;2.183504135258034;3.5837968688009276
16;1.8000000000000003;0;-1291;-1452;-445;-0.00018750572222052677;0.0;2.1861292153691214;3.584921903134251
17;1.9;0;-1291;-1452;-445;-0.00018750572222052677;-0.00018750572222052677;2.1857542039246804;3.5841718802453686
18;2.0000000000000004;0;-1291;-1452;-445;-0.00018750572222052677;-0.00018750572222052677;2.1846291695913576;3.5858594317453534
19;2.1;0;-1291;-1452;-445;-0.00018750572222052677;-0.00018750572222052677;2.187441755424665;3.5882970061342205
20;2.3000000000000003;0;-1291;-1452;0;-0.00018750572222052677;-0.00018750572222052677;3.588484511856441;3.5837968688009276
21;2.4;0;-1291;-1452;-445;-0.00018750572222052677;-0.00037501144444105353;2.1861292153691214;3.5851094088564714
22;2.5000000000000004;0;-1291;-1452;-445;0.0;-0.00018750572222052677;2.1872542497024443;3.5796717429120766
23;2.6;0;-1291;-1452;-445;-0.00037501144444105353;-0.00037501144444105353;2.185941709646901;3.5860469374675743
24;2.6999999999999997;0;-1291;-1452;-445;-0.00018750572222052677;-0.00018750572222052677;2.1853791924802395;3.584921903134251
25;2.8000000000000003;0;-1291;-1452;-445;-0.00018750572222052677;-0.00018750572222052677;2.1863167210913423;3.5841718802453686
26;2.9;0;-1291;-1452;-445;-0.00018750572222052677;-0.00018750572222052677;2.1878167668691058;3.5837968688009276
27;3.1;0;-1291;-1452;-445;-0.00037501144444105353;-0.00018750572222052677;2.1878167668691058;3.581921811578723
28;3.1999999999999997;0;-1291;-1452;-445;0.0;-0.00018750572222052677;2.1878167668691058;3.58454689168981
29;3.3000000000000003;0;-1291;-1452;-445;-0.00018750572222052677;-0.00018750572222052677;2.187441755424665;3.5822968230231633
30;3.4;0;-1291;-1452;-445;-0.00037501144444105353;-0.00018750572222052677;2.1872542497024443;3.583609363078707
31;3.5000000000000004;0;-1291;-1452;-445;0.0;-0.00037501144444105353;2.190254341257973;3.582484328745384
32;3.6;0;-1291;-1452;-445;-0.00018750572222052677;-0.00018750572222052677;2.188566789757988;3.5847343974120305
33;3.6999999999999997;0;-1291;-1452;-445;-0.00018750572222052677;0.0;2.1887542954802086;3.58454689168981
34;3.8000000000000003;0;-1291;-1452;-445;0.0;-0.00018750572222052677;2.183504135258034;3.5841718802453686
35;4.0;0;-1291;-1452;-445;0.0;0.0;2.1868792382580033;3.5864219489120153
36;4.1;0;-1291;-1452;-445;-0.00018750572222052677;-0.00018750572222052677;2.1876292611468853;3.5837968688009276
37;4.199999999999999;0;-1291;-1452;-445;-0.00018750572222052677;-0.00037501144444105353;2.1883792840357676;3.5860469374675743
38;4.299999999999999;0;-1291;-1452;0;-0.00018750572222052677;-0.00018750572222052677;3.5890470290231025;3.581921811578723
39;4.4;0;-1291;-1452;-445;0.0;-0.00018750572222052677;2.189504318369091;3.583234351634266
40;4.5;0;-1291;-1452;-445;-0.00037501144444105353;0.0;2.188941801202429;3.5830468459120457
41;4.6;0;-1291;-1452;-445;-0.00018750572222052677;-0.00018750572222052677;2.185941709646901;3.5837968688009276
42;4.799999999999999;0;-1291;-1452;-445;-0.00018750572222052677;-0.00037501144444105353;2.185191686758019;3.5822968230231633
43;4.9;0;-1291;-1452;-445;-0.00018750572222052677;-0.00018750572222052677;2.1833166295358137;3.583234351634266
44;5.0;0;-1291;-1452;-445;-0.00018750572222052677;0.0;2.184254158146916;3.583234351634266
45;5.1;0;-1291;-1452;-445;-0.00018750572222052677;0.0;2.1850041810357985;3.582484328745384
46;5.199999999999999;0;-1291;-1452;-445;-0.00018750572222052677;-0.00018750572222052677;2.1857542039246804;3.583234351634266
47;5.299999999999999;0;-1291;-1452;-445;0.0;-0.00018750572222052677;2.1868792382580033;3.5821093173009433
48;5.4;323;-1291;-1452;-445;-0.00018750572222052677;-0.00018750572222052677;2.1866917325357833;3.582484328745384
49;5.5;323;-1291;-1452;-445;-0.00037501144444105353;0.0;2.184254158146916;3.5834218573564867
50;5.6;323;-1291;-1452;-445;-0.00018750572222052677;-0.00018750572222052677;2.1880042725913267;3.584921903134251
51;5.699999999999999;323;-1291;-1452;-445;-0.00018750572222052677;-0.00018750572222052677;2.1868792382580033;3.5866094546342357
52;5.799999999999999;646;-1291;-1452;-445;-0.00018750572222052677;-0.00018750572222052677;2.188566789757988;3.5804217658009585
53;5.9;646;-1291;-1452;-445;0.0;-0.00037501144444105353;2.183504135258034;3.5860469374675743
54;6.0;646;-1291;-1452;-445;-0.00018750572222052677;0.0;2.1923169042023987;3.5879219946897796
55;6.1;968;-1291;968;-445;2.190254341257973;-0.00018750572222052677;2.188941801202429;3.5830468459120457
56;6.299999999999999;-1291;-1291;-1452;-445;-0.00018750572222052677;-0.00018750572222052677;2.1853791924802395;3.583609363078707
57;6.4;968;-1291;-1452;-445;-0.00018750572222052677;-0.00018750572222052677;2.1861292153691214;3.58454689168981
58;6.5;968;-1291;-1452;-445;-0.00018750572222052677;-0.00037501144444105353;2.1861292153691214;3.5830468459120457
59;6.6;968;-1291;-1452;-445;-0.00018750572222052677;0.0;2.1900668355357524;3.5851094088564714
60;6.699999999999999;968;-1291;-1452;-445;-0.00018750572222052677;-0.00018750572222052677;2.1872542497024443;3.5826718344676043
61;6.799999999999999;968;-1291;-1452;-445;-0.00018750572222052677;0.0;2.1853791924802395;3.584359385967589
62;6.9;1291;-1291;-1452;-445;-0.00018750572222052677;-0.00018750572222052677;2.185941709646901;3.5834218573564867
63;7.1;1291;-1291;-1452;-445;-0.00018750572222052677;-0.00018750572222052677;2.1846291695913576;3.5841718802453686
64;7.199999999999999;968;-1291;-1452;-445;-0.00018750572222052677;-0.00018750572222052677;2.1872542497024443;3.5851094088564714
65;7.299999999999999;968;-1291;-1452;-445;-0.00018750572222052677;-0.00018750572222052677;2.1876292611468853;3.5847343974120305
66;7.4;968;-1291;-1452;-445;-0.00018750572222052677;-0.00037501144444105353;2.18556669820246;3.5841718802453686
67;7.5;1291;-1291;-1452;-445;-0.00018750572222052677;-0.00037501144444105353;2.188191778313547;3.5847343974120305
68;7.6;968;-1291;-1452;-445;-0.00018750572222052677;-0.00018750572222052677;2.1866917325357833;3.5851094088564714
69;7.699999999999999;646;-1291;-1452;-445;0.0;-0.00037501144444105353;2.185941709646901;3.5847343974120305
70;7.9;323;-1291;-1452;-445;-0.00018750572222052677;-0.00018750572222052677;2.1876292611468853;3.5830468459120457
71;8.0;0;-1291;-1452;-445;-0.00037501144444105353;-0.00018750572222052677;2.1872542497024443;3.5830468459120457
72;8.1;0;-1291;-1452;-445;-0.00018750572222052677;-0.00037501144444105353;2.1868792382580033;3.5869844660786767
73;8.2;0;-1291;-1452;-445;-0.00018750572222052677;-0.00018750572222052677;3.589422040467544;3.582859340189825
74;8.299999999999999;0;-1291;-1452;-445;-0.00018750572222052677;-0.00018750572222052677;2.186504226813563;3.5841718802453686
75;8.4;0;-1291;-1452;-445;-0.00018750572222052677;-0.00018750572222052677;2.185941709646901;3.5834218573564867
76;8.5;0;-1291;-1452;-445;0.0;-0.00018750572222052677;2.1868792382580033;3.584921903134251
77;8.6;0;-1291;-1452;-445;-0.00018750572222052677;-0.00018750572222052677;2.1868792382580033;3.582859340189825
78;8.799999999999999;0;-1291;-1452;-445;0.0;0.0;2.187066743980224;3.581921811578723
79;8.9;0;-1291;-1452;-445;-0.00018750572222052677;-0.00037501144444105353;2.187066743980224;3.5830468459120457
80;9.0;0;-1291;-1452;-445;-0.00018750572222052677;-0.00018750572222052677;2.18556669820246;3.5841718802453686
81;9.1;0;-1291;-1452;-445;-0.00018750572222052677;-0.00018750572222052677;2.188566789757988;3.5854844203009124
82;9.2;0;-1291;-1452;-445;-0.00018750572222052677;-0.00018750572222052677;2.1883792840357676;3.5847343974120305
83;9.299999999999999;0;-1291;-1452;-445;-0.00018750572222052677;-0.00018750572222052677;2.1853791924802395;3.5821093173009433
84;9.4;0;-1291;-1452;-445;0.0;-0.00037501144444105353;2.1866917325357833;3.5826718344676043
85;9.6;0;-1291;-1452;-445;-0.00018750572222052677;-0.00018750572222052677;2.187441755424665;3.583234351634266
86;9.7;0;-1291;-1452;-445;-0.00018750572222052677;-0.00018750572222052677;2.1868792382580033;3.582859340189825
87;9.799999999999999;0;-1291;-1452;-445;-0.00018750572222052677;-0.00018750572222052677;2.189504318369091;3.5841718802453686
88;9.9;0;-1291;-1452;-445;-0.00018750572222052677;-0.00018750572222052677;2.187066743980224;3.583984374523148
89;10.0;0;-1291;-1452;-445;0.0;-0.00018750572222052677;2.1872542497024443;3.5847343974120305
90;10.1;0;-1291;-1452;-445;-0.00018750572222052677;-0.00018750572222052677;2.1861292153691214;3.5864219489120153
91;10.2;0;-1291;-1452;-445;-0.00018750572222052677;0.0;3.5864219489120153;3.582484328745384
92;10.4;0;-1291;-1452;-445;-0.00018750572222052677;-0.00018750572222052677;2.188191778313547;3.581546800134282
93;10.5;0;-1291;-1452;-445;-0.00018750572222052677;-0.00018750572222052677;2.189504318369091;3.5807967772453995
94;10.6;0;-1291;-1452;-445;-0.00018750572222052677;-0.00018750572222052677;2.1844416638691366;3.5847343974120305
95;10.7;0;-1291;-1452;-445;-0.00018750572222052677;-0.00018750572222052677;2.1836916409802547;3.583609363078707
96;10.799999999999999;0;-1291;-1452;-445;0.0;-0.00018750572222052677;2.18556669820246;3.5807967772453995
97;10.9;0;-1291;-1452;-445;-0.00018750572222052677;-0.00018750572222052677;2.1872542497024443;3.584359385967589
98;11.0;0;-1291;-1452;-445;-0.00018750572222052677;-0.00018750572222052677;2.187066743980224;3.5847343974120305
99;11.2;0;-1291;-1452;-445;-0.00018750572222052677;-0.00018750572222052677;2.188191778313547;3.5841718802453686
100;11.299999999999999;0;-1291;-1452;-445;-0.00018750572222052677;-0.00018750572222052677;2.184816675313578;3.582484328745384
101;11.4;0;-1291;-1452;-445;0.0;-0.00018750572222052677;2.184254158146916;3.5854844203009124
102;11.5;0;-1291;-1452;-445;-0.00018750572222052677;-0.00018750572222052677;2.1872542497024443;3.584921903134251
103;11.6;0;-1291;-1452;-445;-0.00018750572222052677;-0.00018750572222052677;2.189879329813532;3.583609363078707
104;11.7;0;-1291;-1452;-445;-0.00018750572222052677;0.0;2.186504226813563;3.58454689168981
105;11.799999999999999;0;-1291;-1452;-445;0.0;-0.00018750572222052677;2.1876292611468853;3.583984374523148
106;12.0;0;-1291;-1452;-445;-0.00018750572222052677;-0.00018750572222052677;2.185191686758019;3.582484328745384
107;12.1;0;-1291;-1452;-445;-0.00018750572222052677;0.0;2.1878167668691058;3.583984374523148
108;12.200000000000001;0;-1291;-1452;-445;-0.00018750572222052677;0.0;2.185191686758019;3.5854844203009124
109;12.299999999999999;0;-1452;-1452;-445;-0.00018750572222052677;-0.00018750572222052677;2.1949419843134863;3.5869844660786767
110;12.4;0;-1291;-1452;-445;-0.00037501144444105353;-0.00018750572222052677;2.188941801202429;3.5834218573564867
111;12.499999999999998;0;-1291;-1452;-445;-0.00018750572222052677;-0.00018750572222052677;2.1876292611468853;3.5821093173009433
112;12.6;0;-1291;-1452;-445;0.0;-0.00018750572222052677;2.1831291238135933;3.58454689168981
113;12.700000000000001;0;-1452;-1452;-445;-0.00018750572222052677;-0.00018750572222052677;2.1866917325357833;3.5841718802453686
114;12.9;0;-1291;-1452;-445;-0.00018750572222052677;-0.00018750572222052677;2.187066743980224;3.583609363078707
115;12.999999999999998;0;-1291;-1452;-445;-0.00037501144444105353;-0.00018750572222052677;2.187066743980224;3.584359385967589
116;13.1;0;-1291;-1452;-445;-0.00018750572222052677;0.0;2.1876292611468853;3.5822968230231633
117;13.200000000000001;0;-1291;-1452;-445;-0.00037501144444105353;-0.00018750572222052677;2.1872542497024443;3.582484328745384
118;13.299999999999999;0;-1291;-1452;-445;-0.00018750572222052677;-0.00018750572222052677;2.1868792382580033;3.5804217658009585
119;13.4;0;-1291;-1452;-445;-0.00018750572222052677;-0.00018750572222052677;2.18556669820246;3.58098428296762
120;13.499999999999998;0;-1291;-1452;-445;-0.00018750572222052677;-0.00018750572222052677;2.183879146702475;3.583984374523148
121;13.700000000000001;0;-1291;-1452;-445;0.0;-0.00018750572222052677;2.187441755424665;3.585671926023133
122;13.799999999999999;0;-1291;-1452;-445;-0.00037501144444105353;0.0;2.187066743980224;3.5830468459120457
123;13.9;0;-1291;-1452;-445;-0.00018750572222052677;-0.00018750572222052677;2.1883792840357676;3.583234351634266
124;13.999999999999998;0;-1291;-1452;-445;-0.00018750572222052677;-0.00018750572222052677;2.18556669820246;3.5854844203009124
125;14.1;0;-1291;-1452;-445;-0.00037501144444105353;-0.00018750572222052677;2.1896918240913115;3.582859340189825
126;14.200000000000001;0;-1291;-1452;-445;0.0;-0.00018750572222052677;2.1846291695913576;3.5869844660786767
127;14.299999999999999;0;-1291;-1452;-445;-0.00037501144444105353;-0.00018750572222052677;3.585671926023133;3.5841718802453686
128;14.499999999999998;0;-1291;-1452;-445;-0.00018750572222052677;-0.00018750572222052677;2.187441755424665;3.582859340189825
129;14.6;0;-1291;-1452;-445;-0.00037501144444105353;-0.00018750572222052677;2.1900668355357524;3.582484328745384
130;14.700000000000001;0;-1291;-1452;-445;0.0;0.0;2.1857542039246804;3.58454689168981
131;14.799999999999999;0;-1291;-1452;-445;-0.00018750572222052677;-0.00018750572222052677;2.1866917325357833;3.5837968688009276
132;14.9;0;-1291;-1452;-445;-0.00018750572222052677;-0.00037501144444105353;2.18931681264687;3.583984374523148
133;14.999999999999998;0;-1291;-1452;-445;-0.00018750572222052677;-0.00018750572222052677;2.1850041810357985;3.5811717886898404
134;15.1;0;-1291;-1452;-445;-0.00018750572222052677;-0.00018750572222052677;2.18556669820246;3.5813592944120614
135;15.299999999999999;0;-1291;-1452;-445;-0.00018750572222052677;-0.00018750572222052677;2.187066743980224;3.5811717886898404
136;15.4;0;-1291;-1452;-445;-0.00018750572222052677;-0.00018750572222052677;2.18556669820246;3.5837968688009276
137;15.499999999999998;0;-1291;-1452;-445;0.0;-0.00018750572222052677;2.185191686758019;3.583234351634266
138;15.6;0;-1291;-1452;-445;-0.00018750572222052677;-0.00037501144444105353;2.18556669820246;3.58098428296762
139;15.700000000000001;0;-1291;-1452;-445;-0.00018750572222052677;-0.00018750572222052677;2.185191686758019;3.583984374523148
140;15.799999999999999;0;-1291;-1452;-445;-0.00018750572222052677;-0.00018750572222052677;2.185191686758019;3.583234351634266
141;15.9;0;-1291;-1452;-445;-0.00018750572222052677;-0.00018750572222052677;2.191004364146855;3.580609271523179
142;16.1;0;-1291;-1452;-445;-0.00037501144444105353;-0.00018750572222052677;2.189879329813532;3.582859340189825
143;16.200000000000003;0;-1291;-1452;-445;-0.00018750572222052677;-0.00018750572222052677;2.185941709646901;3.582484328745384
144;16.3;0;-1291;-1452;-445;-0.00037501144444105353;-0.00018750572222052677;2.1911918698690758;3.5860469374675743
145;16.400000000000002;0;-1291;-1452;-445;2.1904418469801934;-0.00018750572222052677;2.1866917325357833;3.581921811578723
146;16.5;-1291;-1291;-1452;-445;-0.00037501144444105353;0.0;2.1844416638691366;3.5822968230231633
147;16.6;0;-1291;-1452;-445;0.0;0.0;2.184816675313578;3.5807967772453995
148;16.700000000000003;0;-1291;-1452;-445;-0.00018750572222052677;-0.00018750572222052677;2.185191686758019;3.5807967772453995
149;16.900000000000002;0;-1291;-1452;-445;-0.00018750572222052677;-0.00018750572222052677;2.1850041810357985;3.5807967772453995
150;17.0;0;-1291;-1452;-445;-0.00018750572222052677;-0.00018750572222052677;2.187066743980224;3.5813592944120614
151;17.1;0;-1291;-1452;-445;-0.00018750572222052677;-0.00018750572222052677;2.1850041810357985;3.5834218573564867
152;17.200000000000003;0;-1291;-1452;-445;-0.00018750572222052677;-0.00018750572222052677;2.187066743980224;3.58098428296762
153;17.3;0;-1291;-1452;-445;-0.00018750572222052677;0.0;2.185941709646901;3.5837968688009276
154;17.400000000000002;0;-1291;-1452;-445;0.0;-0.00018750572222052677;2.1878167668691058;3.5811717886898404
155;17.5;0;-1291;-1452;-445;-0.00018750572222052677;0.0;2.187066743980224;3.583609363078707
156;17.700000000000003;0;-1291;-1452;-445;-0.00018750572222052677;-0.00037501144444105353;2.1866917325357833;3.582859340189825
157;17.8;0;-1291;-1452;-445;-0.00018750572222052677;-0.00018750572222052677;2.185941709646901;3.58098428296762
158;17.900000000000002;0;-1291;-1452;-445;-0.00037501144444105353;-0.00018750572222052677;2.185941709646901;3.586234443189795
159;18.0;0;-1291;-1452;-445;-0.00037501144444105353;0.0;2.1883792840357676;3.5834218573564867
160;18.1;0;-1291;-1452;-445;-0.00018750572222052677;-0.00037501144444105353;2.184254158146916;3.5822968230231633
161;18.200000000000003;0;-1291;-1452;-445;-0.00018750572222052677;0.0;2.189879329813532;3.5794842371898556
162;18.3;0;-1291;-1452;-445;2.1891293069246496;3.584921903134251;2.185941709646901;3.5811717886898404
163;18.5;-1291;-1291;-1452;-445;-0.00037501144444105353;-0.00018750572222052677;2.1853791924802395;3.5811717886898404
164;18.6;0;-1291;-1452;-445;-0.00018750572222052677;-0.00018750572222052677;2.184816675313578;3.5826718344676043
165;18.700000000000003;0;-1291;-1452;-445;-0.00018750572222052677;-0.00018750572222052677;2.184254158146916;3.57742167424543
166;18.8;0;-1291;-1452;-445;0.0;-0.00018750572222052677;2.1883792840357676;3.5834218573564867
167;18.900000000000002;0;-1291;-1452;-445;-0.00037501144444105353;0.0;2.1866917325357833;3.5826718344676043
168;19.0;0;-1291;-1452;-445;0.0;0.0;2.1872542497024443;3.581921811578723
169;19.1;0;-1291;-1452;-445;-0.00018750572222052677;-0.00018750572222052677;2.1887542954802086;3.582484328745384
170;19.3;0;-1291;-1452;-445;-0.00018750572222052677;0.0;2.1833166295358137;3.580609271523179
171;19.400000000000002;0;-1291;-1452;-445;-0.00018750572222052677;0.0;2.1878167668691058;3.583984374523148
172;19.5;0;-1291;-1452;-445;0.0;-0.00018750572222052677;2.183504135258034;3.5807967772453995
173;19.6;0;-1291;-1452;-445;0.0;-0.00037501144444105353;2.1861292153691214;3.5817343058565023
174;19.700000000000003;0;-1291;-1452;-445;-0.00018750572222052677;0.0;2.187066743980224;3.5837968688009276
175;19.8;0;-1291;-1452;-445;-0.00018750572222052677;-0.00018750572222052677;2.1887542954802086;3.5834218573564867
176;19.900000000000002;0;-1291;-1452;-445;-0.00018750572222052677;0.0;2.1868792382580033;3.5847343974120305
177;20.1;0;-1291;-1452;-445;-0.00018750572222052677;-0.00018750572222052677;2.188191778313547;3.5813592944120614
178;20.200000000000003;0;-1291;-1452;-445;-0.00037501144444105353;-0.00018750572222052677;2.184816675313578;3.584359385967589
