;Time;Thrust;Pressure1;Pressure2;Weight;Current;Voltage;Battery12V;Battery24V
0;0.0;26;2;1;-363;-0.00018750572222052677;-0.00018750572222052677;2.0623754387035738;3.5626087221900082
1;0.1;35;2;1;-369;0.0;-0.00018750572222052677;2.065188024536882;3.557733573412275
2;0.2;29;0;2;-347;-0.00018750572222052677;-0.00018750572222052677;2.0575002899258403;3.5552959990234076
3;0.3;11;3;0;-350;3.5618586993011263;-0.00018750572222052677;2.0608753929258095;3.5588586077455977
4;0.5;40;1;2;-359;-0.00018750572222052677;0.0;2.069125644703513;2.072500747703482
5;0.6;34;2;3;-347;-0.00018750572222052677;-0.00018750572222052677;2.0668755760368667;3.5627962279122287
6;0.7;34;2;1;-346;0.0;-0.00018750572222052677;2.0627504501480147;3.5562335276345105
7;0.8;37;2;2;-348;-0.00018750572222052677;-0.00018750572222052677;2.0657505417035433;3.5581085848567158
8;0.9;38;10;1;-347;-0.00018750572222052677;0.0;2.0608753929258095;3.556983550523393
9;1.1;35;2;17;2;0.0;3.5618586993011263;2.060687887203589;3.5566085390789515
10;1.2;36;0;1;-347;-0.00018750572222052677;-0.00018750572222052677;2.0653755302591024;3.5605461592455825
11;1.3;24;0;1;-361;-0.00018750572222052677;-0.00018750572222052677;2.0665005645924253;3.5637337565233316
12;1.4;37;0;1;-347;0.0;-0.00018750572222052677;2.070250679036836;3.5644837794122135
13;1.5;23;12;1;-348;3.565233802301096;-0.00018750572222052677;2.05731278420362;3.5566085390789515
14;1.7;36;1;1;-346;0.0;-0.00018750572222052677;2.0621879329813533;3.5618586993011263
15;1.8;20;41;2;-347;3.5648587908566545;-0.00018750572222052677;2.0608753929258095;3.5562335276345105
16;1.9;31;3;1;-347;0.0;-0.00018750572222052677;2.0676255989257486;2.0665005645924253
17;2.0;33;1;-1;-349;-0.00018750572222052677;-0.00018750572222052677;2.065938047425764;3.564296273689993
18;2.1;16;25;2;-349;3.562046205023347;0.0;2.060125370036927;3.554733481856746
19;2.2;36;1;2;-361;-0.00018750572222052677;0.0;2.063875484481338;3.5579210791344953
20;2.4;37;0;1;-347;0.0;0.0;2.0693131504257334;3.5624212164677878
21;2.5;27;1;2;-359;2.067813104647969;-0.00018750572222052677;2.062937955870235;3.556796044801172
22;2.6;25;0;1;-358;0.0;-0.00018750572222052677;2.067438093203528;3.5631712393566697
23;2.7;39;1;1;-345;0.0;-0.00018750572222052677;2.065938047425764;3.5575460676900543
24;2.8;37;1;0;-346;-0.00018750572222052677;0.0;2.06462550737022;3.5575460676900543
25;2.9;37;0;1;-348;0.0;-0.00018750572222052677;2.0653755302591024;3.5592336191900387
26;3.1;38;0;0;-347;-0.00018750572222052677;-0.00037501144444105353;2.062937955870235;3.5579210791344953
27;3.2;37;1;2;-347;-0.00018750572222052677;0.0;2.0621879329813533;3.5582960905789363
28;3.3;36;2;1;-347;0.0;0.0;2.062000427259133;3.5579210791344953
29;3.4;35;2;2;-348;-0.00018750572222052677;-0.00018750572222052677;2.061437910092471;3.5584835963011567
30;3.5;37;1;1;-348;-0.00018750572222052677;-0.00018750572222052677;2.0621879329813533;3.559046113467818
31;3.7;35;2;0;-347;-0.00018750572222052677;-0.00018750572222052677;2.0636879787591176;3.559046113467818
32;3.8;22;0;1;-348;-0.00037501144444105353;-0.00018750572222052677;2.0627504501480147;3.5579210791344953
33;3.9;35;1;2;-364;-0.00018750572222052677;-0.00018750572222052677;2.073063264870144;3.555671010467849
34;4.0;26;1;0;22;-0.00018750572222052677;2.0668755760368667;3.5624212164677878;3.5609211706900235
35;4.1;35;0;2;-370;0.0;-0.00018750572222052677;2.057875301370281;3.5592336191900387
36;4.3;21;1;2;-361;-0.00018750572222052677;-0.00018750572222052677;2.0689381389812924;3.556983550523393
37;4.4;28;4;0;-25;0.0;2.0704381847590563;3.562046205023347;3.5498583330790123
38;4.5;23;-1;2;-347;-0.00018750572222052677;-0.00018750572222052677;2.062937955870235;3.5584835963011567
39;4.6;6;34;1;-347;-0.00018750572222052677;-0.00018750572222052677;2.0595628528702656;3.5597961363567
40;4.7;14;-1;3;-365;0.0;-0.00018750572222052677;2.065938047425764;3.5669213538010807
41;4.8;0;1;2;-360;-0.00018750572222052677;-0.00018750572222052677;2.0586253242591632;3.5616711935789054
42;5.0;-8;1;3;-353;-0.00018750572222052677;-0.00018750572222052677;2.061437910092471;3.5541709646900848
43;5.1;20;3;1;-347;-0.00018750572222052677;0.0;2.060687887203589;3.556421033356731
44;5.2;-3;1;2;-347;0.0;0.0;2.0616254158146914;3.5534209418012024
45;5.3;40;1;1;-355;-0.00018750572222052677;-0.00018750572222052677;2.0704381847590563;2.0657505417035433
46;5.4;24;0;1;-6;-0.00018750572222052677;0.0;3.5624212164677878;3.557358561967834
47;5.5;23;2;-1;-349;-0.00018750572222052677;-0.00018750572222052677;2.056375255592517;3.5539834589678643
48;5.7;38;11;1;-355;3.5554835047456286;-0.00018750572222052677;2.059375347148045;3.556983550523393
49;5.8;34;0;-1;-350;-0.00018750572222052677;-0.00018750572222052677;2.0708131962034972;3.562983733634449
50;5.9;36;0;1;-349;-0.00018750572222052677;-0.00018750572222052677;2.0650005188146614;3.5579210791344953
51;6.0;37;2;1;-347;0.0;-0.00037501144444105353;2.0644380016479995;3.5596086306344796
52;6.1;37;0;1;-348;0.0;-0.00018750572222052677;2.055625232703635;3.5582960905789363
53;6.3;37;0;2;-347;0.0;0.0;2.0623754387035738;3.5596086306344796
54;6.4;38;2;2;-348;-0.00018750572222052677;0.0;2.0648130130924405;3.5588586077455977
55;6.5;37;1;0;-348;-0.00018750572222052677;-0.00018750572222052677;2.0623754387035738;3.557358561967834
56;6.6;28;38;2;-356;3.5637337565233316;0.0;2.06462550737022;3.5596086306344796
57;6.7;35;0;2;-367;-0.00018750572222052677;-0.00018750572222052677;2.0747508163701287;3.56673384807886
58;6.8;37;1;2;-348;-0.00018750572222052677;-0.00018750572222052677;2.065938047425764;3.561108676412244
59;7.0;35;1;0;-346;-0.00018750572222052677;0.0;2.0621879329813533;3.5588586077455977
60;7.1;20;1;1;-349;-0.00018750572222052677;-0.00018750572222052677;2.063312967314676;3.5588586077455977
61;7.2;35;0;2;-347;-0.00018750572222052677;-0.00018750572222052677;2.0625629444257942;3.5597961363567
62;7.3;34;2;1;-349;-0.00037501144444105353;-0.00018750572222052677;2.0621879329813533;3.559046113467818
63;7.4;20;1;1;-346;-0.00018750572222052677;-0.00018750572222052677;2.063500473036897;3.5575460676900543
64;7.6;33;1;1;-347;0.0;0.0;2.0627504501480147;3.5597961363567
65;7.7;38;2;1;-347;-0.00018750572222052677;-0.00018750572222052677;2.0625629444257942;3.5575460676900543
66;7.8;2;37;1;-348;3.564296273689993;-0.00018750572222052677;2.06462550737022;3.5599836420789206
67;7.9;39;2;1;-348;0.0;-0.00018750572222052677;2.062937955870235;3.557358561967834
68;8.0;38;1;1;-347;-0.00018750572222052677;-0.00018750572222052677;2.0650005188146614;3.5597961363567
69;8.2;36;1;2;-348;-0.00018750572222052677;-0.00018750572222052677;2.0621879329813533;3.5571710562456134
70;8.3;21;3;22;-347;2.0717507248146;-0.00018750572222052677;2.0608753929258095;3.5566085390789515
71;8.4;37;0;1;-346;-0.00018750572222052677;-0.00018750572222052677;2.0653755302591024;3.5582960905789363
72;8.5;36;0;1;-348;-0.00018750572222052677;-0.00037501144444105353;2.0650005188146614;3.5586711020233777
73;8.6;36;1;1;-375;0.0;-0.00018750572222052677;2.0676255989257486;3.5626087221900082
74;8.7;37;0;1;-346;-0.00018750572222052677;-0.00018750572222052677;2.0636879787591176;3.561108676412244
75;8.9;37;1;2;-347;-0.00018750572222052677;-0.00018750572222052677;2.0548752098147527;3.5586711020233777
76;9.0;34;2;1;-362;-0.00018750572222052677;-0.00018750572222052677;2.069875667592395;3.5626087221900082
77;9.1;36;1;2;-346;-0.00018750572222052677;-0.00018750572222052677;2.063500473036897;3.5597961363567
78;9.2;36;1;1;-348;-0.00018750572222052677;-0.00037501144444105353;2.063500473036897;3.5612961821344644
79;9.3;27;1;1;-363;0.0;-0.00018750572222052677;2.0693131504257334;3.5612961821344644
80;9.5;0;0;0;-360;-0.00037501144444105353;0.0;2.0616254158146914;3.557733573412275
81;9.6;14;3;1;-347;-0.00018750572222052677;-0.00018750572222052677;2.06818811609241;2.070250679036836
82;9.7;39;3;1;-360;-0.00018750572222052677;-0.00018750572222052677;2.0672505874813076;3.5626087221900082
83;9.8;26;2;2;-7;-0.00018750572222052677;0.0;3.561108676412244;3.5552959990234076
84;9.9;37;2;1;-358;-0.00018750572222052677;-0.00018750572222052677;2.069500656147954;3.5624212164677878
85;10.1;35;0;1;-358;-0.00018750572222052677;-0.00018750572222052677;2.069688161870174;3.560358653523362
86;10.2;0;2;2;-358;-0.00018750572222052677;-0.00018750572222052677;2.0580628070925013;3.563921262245552
87;10.3;36;1;1;-346;0.0;-0.00018750572222052677;2.0621879329813533;3.556421033356731
88;10.4;-7;2;3;-348;-0.00018750572222052677;-0.00037501144444105353;2.0623754387035738;3.556983550523393
89;10.5;35;3;1;-359;-0.00018750572222052677;-0.00018750572222052677;2.0584378185369423;3.555671010467849
90;10.6;21;2;1;-361;-0.00018750572222052677;-0.00018750572222052677;2.062000427259133;3.563546250801111
91;10.8;35;-1;1;-359;-0.00018750572222052677;-0.00037501144444105353;2.069688161870174;3.5605461592455825
92;10.9;2;2;1;-354;-0.00018750572222052677;-0.00018750572222052677;2.0616254158146914;3.5612961821344644
93;11.0;23;1;35;-346;0.0;3.561483687856685;2.059000335703604;3.5571710562456134
94;11.1;39;1;0;-346;-0.00018750572222052677;-0.00018750572222052677;2.061437910092471;3.5631712393566697
95;11.2;13;3;2;-346;-0.00018750572222052677;0.0;2.062000427259133;3.5571710562456134
96;11.4;23;1;0;12;-0.00018750572222052677;2.0672505874813076;2.068750633259072;3.5545459761345257
97;11.5;20;2;1;-347;-0.00018750572222052677;-0.00018750572222052677;2.059750358592486;3.5552959990234076
98;11.6;-8;0;16;-358;-0.00018750572222052677;3.5618586993011263;2.060312875759148;3.555108493301187
99;11.7;37;2;1;-347;-0.00018750572222052677;0.0;2.0700631733146153;2.066688070314646
100;11.8;38;2;1;3;0.0;2.0676255989257486;2.0672505874813076;3.5558585161900695
101;11.9;1;0;2;-361;-0.00018750572222052677;-0.00018750572222052677;2.059750358592486;3.5549209875789667
102;12.1;27;1;1;-363;-0.00018750572222052677;-0.00018750572222052677;2.0689381389812924;2.0653755302591024
103;12.2;38;0;1;-347;0.0;-0.00018750572222052677;2.062937955870235;3.5581085848567158
104;12.3;40;2;1;-348;-0.00018750572222052677;-0.00018750572222052677;2.0710007019257177;3.5539834589678643
105;12.4;12;1;0;-347;0.0;0.0;2.061437910092471;3.554733481856746
106;12.5;39;0;-1;-360;0.0;-0.00037501144444105353;2.0640629902035585;3.5558585161900695
107;12.6;14;3;13;1;-0.00018750572222052677;3.5641087679677725;2.062000427259133;3.5522959074678795
108;12.8;37;2;0;-371;-0.00018750572222052677;-0.00018750572222052677;2.06818811609241;3.5562335276345105
109;12.9;25;1;0;-372;3.563921262245552;-0.00018750572222052677;2.063500473036897;3.553795953245644
110;13.0;34;0;18;-349;-0.00018750572222052677;-0.00018750572222052677;2.0627504501480147;3.556796044801172
111;13.1;40;0;2;-368;-0.00018750572222052677;-0.00018750572222052677;2.069500656147954;3.5616711935789054
112;13.2;39;1;1;-348;-0.00037501144444105353;-0.00018750572222052677;2.062000427259133;3.5575460676900543
113;13.4;37;2;1;-347;-0.00018750572222052677;-0.00018750572222052677;2.0625629444257942;3.5582960905789363
114;13.5;38;2;1;-349;-0.00018750572222052677;-0.00037501144444105353;2.0623754387035738;3.5575460676900543
115;13.6;37;0;2;-347;-0.00037501144444105353;-0.00018750572222052677;2.062000427259133;3.5584835963011567
116;13.7;37;2;1;-346;-0.00018750572222052677;0.0;2.0623754387035738;3.5581085848567158
117;13.8;36;2;2;-348;-0.00018750572222052677;-0.00018750572222052677;2.0621879329813533;3.557733573412275
118;13.9;35;2;0;-346;0.0;-0.00018750572222052677;2.063500473036897;3.5588586077455977
119;14.1;38;1;0;-346;-0.00018750572222052677;-0.00018750572222052677;2.063875484481338;3.5612961821344644
120;14.2;36;0;2;-347;0.0;-0.00018750572222052677;2.055625232703635;3.5586711020233777
121;14.3;37;1;1;-347;-0.00018750572222052677;-0.00018750572222052677;2.062937955870235;3.5571710562456134
122;14.4;34;3;1;-347;0.0;-0.00018750572222052677;2.0631254615924557;3.5582960905789363
123;14.5;35;2;2;-347;0.0;-0.00018750572222052677;2.0631254615924557;3.5549209875789667
124;14.7;6;37;2;-347;3.5622337107455673;-0.00018750572222052677;2.062937955870235;3.54892080446791
125;14.8;24;1;1;-347;-0.00018750572222052677;0.0;2.0663130588702048;3.560733664967803
126;14.9;24;0;1;-348;3.5586711020233777;-0.00037501144444105353;2.0575002899258403;3.553233436078982
127;15.0;23;0;1;-348;-0.00018750572222052677;-0.00018750572222052677;2.0648130130924405;3.5669213538010807
128;15.1;35;2;2;-348;0.0;-0.00018750572222052677;2.0618129215369123;3.5581085848567158
129;15.2;35;1;2;-369;-0.00018750572222052677;-0.00018750572222052677;2.062000427259133;3.5584835963011567
130;15.4;36;0;2;-352;-0.00018750572222052677;-0.00018750572222052677;2.0543126926480912;3.5491083101901304
131;15.5;35;0;0;-358;0.0;0.0;2.0623754387035738;3.5554835047456286
132;15.6;36;2;2;-365;-0.00018750572222052677;0.0;2.0636879787591176;3.5627962279122287
133;15.7;1;1;2;-348;0.0;-0.00037501144444105353;2.0631254615924557;3.559421124912259
134;15.8;25;1;2;-363;-0.00018750572222052677;-0.00018750572222052677;2.068375621814631;3.562046205023347
135;16.0;33;2;2;-348;0.0;2.074938322092349;3.5626087221900082;3.5543584704123052
136;16.1;37;0;3;-346;-0.00018750572222052677;-0.00037501144444105353;2.0732507705923644;3.5575460676900543
137;16.2;19;2;2;-348;-0.00018750572222052677;-0.00037501144444105353;2.0621879329813533;3.55604602191229
138;16.3;36;2;0;5;0.0;-0.00018750572222052677;3.567483870967742;3.5592336191900387
139;16.4;13;0;3;-347;0.0;-0.00018750572222052677;2.060125370036927;3.5552959990234076
140;16.5;1;0;0;-347;0.0;-0.00018750572222052677;2.069688161870174;3.561108676412244
141;16.7;10;1;1;-347;-0.00018750572222052677;-0.00018750572222052677;2.0625629444257942;3.5579210791344953
142;16.8;21;2;1;-345;0.0;-0.00018750572222052677;2.06106289864803;3.557358561967834
143;16.9;35;0;0;-365;0.0;0.0;2.0650005188146614;3.560733664967803
144;17.0;34;1;1;-348;-0.00018750572222052677;-0.00018750572222052677;2.0588128299813837;3.5584835963011567
145;17.1;40;3;3;-358;-0.00018750572222052677;-0.00018750572222052677;2.0595628528702656;3.5622337107455673
146;17.3;31;1;1;-348;-0.00018750572222052677;-0.00018750572222052677;2.0621879329813533;3.5579210791344953
147;17.4;3;0;1;-359;-0.00018750572222052677;-0.00018750572222052677;2.0623754387035738;3.560358653523362
148;17.5;41;1;2;-347;-0.00018750572222052677;-0.00037501144444105353;2.062000427259133;3.5579210791344953
149;17.6;22;1;1;-353;-0.00018750572222052677;-0.00018750572222052677;2.0618129215369123;3.557733573412275
150;17.7;9;2;1;-353;-0.00018750572222052677;-0.00018750572222052677;2.063500473036897;3.564296273689993
151;17.9;35;2;1;22;-0.00018750572222052677;-0.00018750572222052677;3.5657963194677573;3.5584835963011567
152;18.0;39;2;31;-364;2.069500656147954;0.0;2.060312875759148;3.5581085848567158
153;18.1;37;2;1;-366;-0.00018750572222052677;0.0;2.0616254158146914;3.5582960905789363
154;18.2;36;0;0;-347;-0.00018750572222052677;0.0;2.0657505417035433;3.559046113467818
155;18.3;36;3;1;-347;0.0;-0.00037501144444105353;2.0627504501480147;3.5581085848567158
156;18.5;35;1;1;-347;0.0;-0.00037501144444105353;2.0627504501480147;3.5581085848567158
157;18.6;35;1;1;-348;0.0;-0.00018750572222052677;2.0625629444257942;3.557733573412275
158;18.7;14;2;1;-349;-0.00018750572222052677;-0.00018750572222052677;2.0668755760368667;3.560171147801141
159;18.8;36;2;1;-346;-0.00018750572222052677;-0.00018750572222052677;2.0625629444257942;3.557733573412275
160;18.9;35;0;0;-345;-0.00018750572222052677;-0.00018750572222052677;2.0625629444257942;3.5592336191900387
161;19.0;36;3;1;-368;-0.00037501144444105353;-0.00018750572222052677;2.0680006103701896;3.5626087221900082
162;19.2;38;1;0;-347;-0.00018750572222052677;-0.00018750572222052677;2.0636879787591176;3.559046113467818
163;19.3;39;1;1;-347;0.0;-0.00018750572222052677;2.0627504501480147;3.5575460676900543
164;19.4;39;4;1;-348;-0.00018750572222052677;-0.00018750572222052677;2.065563035981323;3.5571710562456134
165;19.5;37;1;1;-348;0.0;-0.00018750572222052677;2.064250495925779;3.559421124912259
166;19.6;36;1;2;-348;-0.00018750572222052677;0.0;2.06818811609241;3.561108676412244
167;19.8;39;1;1;-347;-0.00037501144444105353;-0.00018750572222052677;2.06462550737022;3.5581085848567158
168;19.9;36;1;1;-346;-0.00037501144444105353;-0.00018750572222052677;2.0631254615924557;3.552108401745659
169;20.0;37;1;2;-348;-0.00018750572222052677;-0.00037501144444105353;2.063312967314676;3.557733573412275
170;20.1;37;1;1;-348;-0.00018750572222052677;-0.00037501144444105353;2.063500473036897;3.5599836420789206
171;20.2;37;0;1;-347;-0.00037501144444105353;-0.00018750572222052677;2.0648130130924405;3.5609211706900235
172;20.4;37;2;2;-348;-0.00018750572222052677;-0.00018750572222052677;2.063500473036897;3.5592336191900387
173;20.5;37;1;2;-346;-0.00018750572222052677;-0.00018750572222052677;2.0621879329813533;3.5582960905789363
174;20.6;36;0;1;-359;-0.00018750572222052677;0.0;2.0644380016479995;2.069500656147954
175;20.7;37;0;1;-346;-0.00037501144444105353;-0.00018750572222052677;2.0621879329813533;3.5575460676900543
176;20.8;36;2;2;-346;-0.00018750572222052677;-0.00037501144444105353;2.063500473036897;3.5581085848567158
177;20.9;-27;2;1;-347;0.0;-0.00037501144444105353;2.063312967314676;3.559046113467818
178;21.1;36;1;1;-348;0.0;-0.00018750572222052677;2.061437910092471;3.5584835963011567
179;21.2;35;2;2;1;-0.00018750572222052677;-0.00018750572222052677;3.5663588366344188;3.5579210791344953
180;21.3;37;2;2;0;2.068375621814631;-0.00018750572222052677;2.0636879787591176;3.5579210791344953
181;21.4;14;2;1;-346;-0.00018750572222052677;-0.00018750572222052677;2.0616254158146914;3.556983550523393
182;21.5;36;2;1;-347;-0.00037501144444105353;-0.00018750572222052677;2.060687887203589;3.556796044801172
183;21.7;37;2;0;-365;0.0;-0.00018750572222052677;2.0625629444257942;3.5581085848567158
184;21.8;8;2;1;-347;-0.00018750572222052677;-0.00018750572222052677;2.0625629444257942;3.5624212164677878
185;21.9;38;1;1;-347;-0.00018750572222052677;-0.00018750572222052677;2.065563035981323;3.5588586077455977
186;22.0;26;2;1;-347;-0.00018750572222052677;-0.00018750572222052677;2.0663130588702048;3.5571710562456134
187;22.1;28;12;1;-346;3.5641087679677725;-0.00018750572222052677;2.058250312814722;3.5582960905789363
188;22.2;20;2;1;-359;3.5586711020233777;-0.00018750572222052677;2.0648130130924405;3.5588586077455977
189;22.4;35;1;0;-347;-0.00018750572222052677;0.0;2.0625629444257942;3.564671285134434
190;22.5;-3;1;2;-347;-0.00018750572222052677;-0.00018750572222052677;2.0631254615924557;3.557358561967834
191;22.6;15;1;1;-348;-0.00018750572222052677;0.0;2.0623754387035738;3.560171147801141
192;22.7;2;-1;2;-353;-0.00018750572222052677;-0.00018750572222052677;2.061437910092471;3.563546250801111
193;22.8;24;2;0;-347;-0.00018750572222052677;-0.00018750572222052677;2.072875759147923;3.56335874507889
194;23.0;36;2;0;-361;-0.00018750572222052677;0.0;2.063500473036897;3.557733573412275
195;23.1;37;1;1;-347;0.0;-0.00018750572222052677;2.0623754387035738;3.5579210791344953
196;23.2;37;2;1;-376;-0.00018750572222052677;-0.00018750572222052677;2.072125736259041;3.5584835963011567
197;23.3;35;1;0;-358;-0.00018750572222052677;-0.00018750572222052677;2.0672505874813076;3.5641087679677725
198;23.4;-19;2;1;-348;-0.00018750572222052677;0.0;2.0580628070925013;3.555671010467849
199;23.6;33;1;1;-356;0.0;0.0;2.065188024536882;3.5562335276345105
200;23.7;33;1;1;-375;-0.00018750572222052677;0.0;2.0608753929258095;3.5627962279122287
201;23.8;27;3;0;-363;-0.00018750572222052677;-0.00037501144444105353;2.065188024536882;3.5612961821344644
202;23.9;35;31;2;-363;3.5689839167455064;-0.00018750572222052677;2.05375017548143;3.55604602191229
203;24.0;30;1;0;-366;-0.00018750572222052677;0.0;3.561108676412244;3.5605461592455825
204;24.1;1;1;1;-358;-0.00018750572222052677;-0.00018750572222052677;2.0648130130924405;3.5616711935789054
205;24.3;25;3;2;2;2.0625629444257942;-0.00018750572222052677;2.0623754387035738;3.556421033356731
206;24.4;34;1;2;-348;0.0;-0.00037501144444105353;2.060125370036927;3.556796044801172
207;24.5;30;0;2;-348;0.0;-0.00037501144444105353;2.063875484481338;3.560358653523362
