;Time;Thrust;Pressure1;Pressure2;Weight;Current;Voltage;Battery12V;Battery24V
0;0.0;19;1;1;-531;-0.00018750572222052677;-0.00018750572222052677;2.3539468367564926;3.918869594409009
1;0.09999999999999987;21;1;2;-532;0.0;0.0;2.351884273812067;3.9192446058534505
2;0.19999999999999996;21;2;0;-530;-0.00018750572222052677;-0.00018750572222052677;2.352259285256508;3.919807123020112
3;0.2999999999999998;16;2;1;-533;-0.00018750572222052677;-0.00037501144444105353;2.3528218024231697;3.918119571520127
4;0.5;54;0;2;-532;-0.00018750572222052677;-0.00037501144444105353;2.352259285256508;3.9192446058534505
5;0.6000000000000001;33;1;2;-530;0.0;-0.00018750572222052677;2.3535718253120517;3.9186820886867886
6;0.6999999999999997;28;0;1;-531;-0.00018750572222052677;-0.00018750572222052677;2.354321848200934;3.9196196172978914
7;0.7999999999999998;36;1;2;-532;-0.00018750572222052677;-0.00018750572222052677;2.3520717795342874;3.920182134464553
8;0.8999999999999999;18;1;0;-531;-0.00018750572222052677;0.0;2.3539468367564926;3.920182134464553
9;1.0;61;1;2;-533;-0.00018750572222052677;-0.00018750572222052677;2.353384319589831;3.9207446516312148
10;1.1;20;1;1;-531;0.0;-0.00018750572222052677;2.3539468367564926;3.9207446516312148
11;1.1999999999999997;28;1;1;-531;-0.00018750572222052677;-0.00018750572222052677;2.352259285256508;3.919432111575671
12;1.4;45;1;2;-532;-0.00018750572222052677;-0.00018750572222052677;2.3545093539231545;3.9209321573534353
13;1.5;31;1;1;-532;-0.00018750572222052677;-0.00018750572222052677;2.354696859645375;3.9209321573534353
14;1.6;29;0;1;1;2.354134342478713;-0.00037501144444105353;2.35300930814539;3.9199946287423324
15;1.6999999999999997;30;1;1;-531;-0.00018750572222052677;-0.00018750572222052677;2.3520717795342874;3.9209321573534353
16;1.7999999999999998;20;2;0;-532;-0.00018750572222052677;-0.00018750572222052677;2.352634296700949;3.9199946287423324
17;1.9;29;1;1;-532;-0.00018750572222052677;-0.00018750572222052677;2.3516967680898464;3.917744560075686
18;2.0;45;1;1;-532;-0.00018750572222052677;0.0;2.352259285256508;3.9175570543534657
19;2.1999999999999997;29;0;1;-530;0.0;-0.00018750572222052677;2.349634205145421;3.916619525742363
20;2.3;33;2;1;-532;-0.00018750572222052677;-0.00018750572222052677;2.35300930814539;3.9173695486312448
21;2.4;31;2;1;-532;-0.00037501144444105353;-0.00018750572222052677;2.3520717795342874;3.9154944914090395
22;2.4999999999999996;28;1;2;-532;-0.00018750572222052677;-0.00018750572222052677;2.351134250923185;3.916994537186804
23;2.6;33;0;1;-532;0.0;-0.00018750572222052677;2.351134250923185;3.9171820429090243
24;2.6999999999999997;29;2;2;-533;-0.00018750572222052677;-0.00018750572222052677;2.3501967223120825;3.9160570085757014
25;2.8000000000000003;32;1;1;-532;0.0;-0.00018750572222052677;2.350009216589862;3.9173695486312448
26;2.9999999999999996;34;1;1;-530;-0.00018750572222052677;-0.00018750572222052677;2.352259285256508;3.9164320200201423
27;3.1;37;1;0;-532;-0.00018750572222052677;-0.00018750572222052677;2.351509262367626;3.9160570085757014
28;3.1999999999999997;35;1;2;-532;-0.00018750572222052677;-0.00018750572222052677;2.3520717795342874;3.9168070314645833
29;3.3000000000000003;35;2;1;-532;-0.00018750572222052677;-0.00037501144444105353;2.351509262367626;3.9151194799645985
30;3.4;30;0;2;-533;-0.00018750572222052677;-0.00018750572222052677;2.350009216589862;3.9164320200201423
31;3.4999999999999996;20;2;1;-530;-0.00018750572222052677;-0.00037501144444105353;2.351509262367626;3.915869502853481
32;3.6;21;2;1;-532;-0.00018750572222052677;-0.00018750572222052677;2.354696859645375;3.91905710013123
33;3.8000000000000003;21;1;1;-532;2.3539468367564926;-0.00018750572222052677;2.3505717337565235;3.916994537186804
34;3.9;2;0;1;-532;0.0;-0.00018750572222052677;2.349634205145421;3.915306985686819
35;3.9999999999999996;23;2;1;-531;-0.00018750572222052677;-0.00018750572222052677;2.3520717795342874;3.915869502853481
36;4.1;18;1;1;-532;-0.00018750572222052677;-0.00037501144444105353;2.350759239478744;3.9171820429090243
37;4.199999999999999;19;2;0;-532;-0.00018750572222052677;-0.00018750572222052677;2.3492591937009797;3.91568199713126
38;4.300000000000001;21;2;0;-533;-0.00018750572222052677;-0.00018750572222052677;2.3516967680898464;3.9179320657979066
39;4.4;18;1;2;-532;-0.00018750572222052677;-0.00018750572222052677;2.3505717337565235;3.9160570085757014
40;4.6;21;1;1;-532;-0.00018750572222052677;0.0;2.3492591937009797;3.9160570085757014
41;4.699999999999999;21;1;1;-532;0.0;0.0;2.350384228034303;3.9164320200201423
42;4.800000000000001;19;2;2;-532;0.0;-0.00018750572222052677;2.349634205145421;3.9160570085757014
43;4.9;19;1;2;-532;-0.00018750572222052677;0.0;2.350384228034303;3.91568199713126
44;5.0;21;1;1;-532;-0.00018750572222052677;-0.00018750572222052677;2.3477591479232154;3.9154944914090395
45;5.1;16;2;2;-532;-0.00018750572222052677;-0.00018750572222052677;2.350759239478744;3.915306985686819
46;5.199999999999999;21;0;1;-532;0.0;-0.00037501144444105353;2.350009216589862;3.914931974242378
47;5.4;133;1;2;-532;-0.00018750572222052677;-0.00018750572222052677;2.3505717337565235;3.915869502853481
48;5.5;356;0;2;-532;-0.00018750572222052677;-0.00018750572222052677;2.350384228034303;3.91568199713126
49;5.5;25;1;3;-533;-0.00018750572222052677;0.0;2.35300930814539;3.919807123020112
50;5.6;32;0;2;-532;-0.00018750572222052677;-0.00018750572222052677;2.348134159367657;3.9154944914090395
51;5.699999999999999;22;1;1;-532;-0.00018750572222052677;-0.00018750572222052677;2.350759239478744;3.9130569170201728
52;5.800000000000001;85;3;1;-531;0.0;-0.00018750572222052677;2.350384228034303;3.9143694570757166
53;5.9;26;1;2;-533;-0.00018750572222052677;-0.00018750572222052677;2.3501967223120825;3.9138069399090547
54;6.1;27;1;2;-529;-0.00018750572222052677;-0.00018750572222052677;2.350009216589862;3.914181951353496
55;6.199999999999999;42;1;1;-531;-0.00018750572222052677;-0.00018750572222052677;2.3494466994232;3.9143694570757166
56;6.300000000000001;36;1;1;-532;0.0;-0.00018750572222052677;2.350384228034303;3.9136194341868342
57;6.4;40;1;2;-532;0.0;-0.00018750572222052677;2.3492591937009797;3.91568199713126
58;6.5;43;1;1;-532;-0.00037501144444105353;-0.00018750572222052677;2.350384228034303;3.914931974242378
59;6.6;41;1;2;-531;-0.00018750572222052677;0.0;2.3494466994232;3.9138069399090547
60;6.700000000000001;36;0;1;-532;-0.00018750572222052677;0.0;2.350759239478744;3.914181951353496
61;6.800000000000001;31;1;2;-532;0.0;-0.00018750572222052677;2.3494466994232;3.914931974242378
62;7.0;31;2;2;-531;0.0;-0.00018750572222052677;2.349634205145421;3.915306985686819
63;7.1;28;1;0;-531;-0.00018750572222052677;-0.00018750572222052677;2.3494466994232;3.9136194341868342
64;7.200000000000001;28;1;2;-530;0.0;0.0;2.3498217108676416;3.9143694570757166
65;7.300000000000001;33;1;3;-532;0.0;0.0;2.349634205145421;3.9143694570757166
66;7.4;32;1;1;-531;-0.00018750572222052677;-0.00018750572222052677;2.3485091708120978;3.916244514297922
67;7.5;35;1;1;-532;-0.00037501144444105353;-0.00018750572222052677;3.9173695486312448;3.9136194341868342
68;7.6;33;3;0;-531;-0.00018750572222052677;-0.00018750572222052677;2.350009216589862;3.91211938840907
69;7.800000000000001;41;2;1;-533;-0.00018750572222052677;-0.00018750572222052677;2.3513217566454054;3.9119318826868494
70;7.9;46;2;1;-533;0.0;-0.00018750572222052677;2.3456965849787896;3.912681905575732
71;8.0;43;1;2;-531;-0.00018750572222052677;-0.00018750572222052677;2.3479466536454363;3.914931974242378
72;8.1;40;2;0;-532;0.0;-0.00018750572222052677;2.349634205145421;3.9132444227423933
73;8.200000000000001;41;2;1;-532;0.0;0.0;2.349634205145421;3.912494399853511
74;8.3;36;1;1;-532;-0.00018750572222052677;-0.00018750572222052677;2.3492591937009797;3.9147444685201576
75;8.4;30;2;2;-533;-0.00018750572222052677;-0.00018750572222052677;2.3486966765343182;3.914181951353496
76;8.6;35;1;1;-532;0.0;-0.00018750572222052677;2.3488841822565387;3.9123068941312904
77;8.700000000000001;32;2;1;-533;-0.00018750572222052677;-0.00018750572222052677;2.3485091708120978;3.9134319284646137
78;8.8;34;1;2;-531;-0.00018750572222052677;-0.00018750572222052677;2.3498217108676416;3.9143694570757166
79;8.9;26;2;2;-531;-0.00018750572222052677;-0.00018750572222052677;2.3485091708120978;3.9143694570757166
80;9.0;29;0;1;-531;-0.00018750572222052677;-0.00018750572222052677;2.349071687978759;3.9130569170201728
81;9.1;32;0;1;-532;0.0;-0.00018750572222052677;2.3488841822565387;3.9128694112979523
82;9.200000000000001;30;1;0;-533;-0.00037501144444105353;-0.00018750572222052677;2.348134159367657;3.91211938840907
83;9.4;31;1;2;-532;0.0;-0.00018750572222052677;2.3485091708120978;3.912494399853511
84;9.5;32;1;2;-531;-0.00018750572222052677;-0.00018750572222052677;2.3488841822565387;3.9147444685201576
85;9.6;37;2;1;34;-0.00018750572222052677;-0.00018750572222052677;2.351134250923185;3.9115568712424085
86;9.700000000000001;37;2;1;-532;-0.00018750572222052677;-0.00018750572222052677;2.346821619312113;3.912681905575732
87;9.8;35;2;0;-532;-0.00018750572222052677;-0.00018750572222052677;2.3479466536454363;3.9111818597979675
88;9.9;36;0;2;-532;0.0;-0.00018750572222052677;2.348134159367657;3.9143694570757166
89;10.0;40;1;1;-532;0.0;-0.00037501144444105353;2.3466341135898925;3.912681905575732
90;10.200000000000001;49;1;1;-532;-0.00018750572222052677;-0.00018750572222052677;2.3483216650898773;3.9128694112979523
91;10.3;51;2;2;-532;-0.00018750572222052677;0.0;2.3492591937009797;3.9130569170201728
92;10.4;40;1;1;-532;-0.00018750572222052677;0.0;2.3494466994232;3.911369365520188
93;10.5;53;1;-1;-531;0.0;-0.00018750572222052677;2.349634205145421;3.9143694570757166
94;10.6;38;0;1;-533;0.0;-0.00018750572222052677;2.3486966765343182;3.9134319284646137
95;10.700000000000001;68;2;2;-532;-0.00018750572222052677;0.0;2.3494466994232;3.9123068941312904
96;10.8;54;1;1;-531;-0.00018750572222052677;-0.00018750572222052677;2.348134159367657;3.9128694112979523
97;11.0;52;0;2;-533;-0.00018750572222052677;-0.00018750572222052677;2.348134159367657;3.9132444227423933
98;11.1;48;1;1;-531;-0.00018750572222052677;-0.00018750572222052677;2.3492591937009797;3.9136194341868342
99;11.200000000000001;53;2;1;-531;-0.00018750572222052677;-0.00018750572222052677;2.3486966765343182;3.9132444227423933
100;11.3;34;1;1;-531;-0.00018750572222052677;-0.00018750572222052677;2.3477591479232154;3.9130569170201728
101;11.4;44;1;1;-532;0.0;0.0;2.348134159367657;3.912681905575732
102;11.5;39;0;1;-532;0.0;-0.00018750572222052677;2.3492591937009797;3.9164320200201423
103;11.6;37;0;2;-532;0.0;-0.00018750572222052677;3.916619525742363;3.91211938840907
104;11.8;32;0;1;-532;-0.00018750572222052677;-0.00018750572222052677;2.3479466536454363;3.9138069399090547
105;11.9;31;1;2;-532;-0.00018750572222052677;-0.00018750572222052677;2.3483216650898773;3.912494399853511
106;12.0;35;1;1;-532;-0.00018750572222052677;0.0;2.3479466536454363;3.9130569170201728
107;12.1;34;0;0;-531;-0.00018750572222052677;0.0;2.347571642200995;3.9123068941312904
108;12.200000000000001;27;1;2;-532;-0.00018750572222052677;-0.00018750572222052677;2.3486966765343182;3.9130569170201728
109;12.3;30;2;1;-532;-0.00018750572222052677;-0.00018750572222052677;2.3483216650898773;3.9123068941312904
110;12.4;31;0;0;-531;-0.00018750572222052677;0.0;2.347571642200995;3.9123068941312904
111;12.5;28;1;1;-531;-0.00018750572222052677;-0.00037501144444105353;2.3477591479232154;3.912494399853511
112;12.700000000000001;30;2;1;-531;-0.00018750572222052677;-0.00018750572222052677;2.3479466536454363;3.912681905575732
113;12.8;31;1;1;-531;-0.00018750572222052677;-0.00018750572222052677;2.348134159367657;3.9128694112979523
114;12.9;28;1;1;-531;0.0;0.0;2.349634205145421;3.910806848353526
115;13.0;33;1;1;-530;-0.00018750572222052677;-0.00018750572222052677;2.347571642200995;3.9123068941312904
116;13.1;29;1;1;-532;0.0;-0.00018750572222052677;2.3483216650898773;3.91211938840907
117;13.200000000000001;31;1;1;-532;0.0;-0.00018750572222052677;2.3477591479232154;3.9119318826868494
118;13.3;29;2;1;-530;0.0;-0.00018750572222052677;2.3486966765343182;3.9115568712424085
119;13.5;54;1;1;-531;0.0;-0.00018750572222052677;2.349634205145421;3.9123068941312904
120;13.6;36;2;1;-532;0.0;-0.00018750572222052677;2.3494466994232;3.9130569170201728
121;13.700000000000001;31;1;1;30;-0.00018750572222052677;-0.00037501144444105353;3.9151194799645985;3.9115568712424085
122;13.8;29;2;1;-532;-0.00018750572222052677;-0.00018750572222052677;2.3473841364787744;3.910806848353526
123;13.9;33;1;2;-531;0.0;-0.00018750572222052677;2.3479466536454363;3.911369365520188
124;14.0;33;1;2;-532;-0.00018750572222052677;-0.00018750572222052677;2.349071687978759;3.9119318826868494
125;14.1;30;1;1;-532;-0.00018750572222052677;0.0;2.3473841364787744;3.9104318369090856
126;14.3;28;1;1;-531;0.0;-0.00018750572222052677;2.3473841364787744;3.910806848353526
127;14.4;29;1;1;-530;0.0;-0.00037501144444105353;2.3479466536454363;3.9111818597979675
128;14.500000000000002;29;1;1;-533;-0.00018750572222052677;-0.00018750572222052677;2.347571642200995;3.9115568712424085
129;14.6;29;1;1;-532;-0.00018750572222052677;-0.00037501144444105353;2.3473841364787744;3.9104318369090856
130;14.700000000000001;28;0;1;-532;-0.00018750572222052677;-0.00018750572222052677;2.3466341135898925;3.910994354075747
131;14.799999999999999;30;1;1;-532;-0.00037501144444105353;0.0;2.3456965849787896;3.9111818597979675
132;14.9;29;1;2;-532;-0.00018750572222052677;-0.00018750572222052677;2.3466341135898925;3.910244331186865
133;15.1;29;1;1;-531;0.0;-0.00018750572222052677;2.34588409070101;3.910994354075747
134;15.200000000000001;34;1;2;-532;-0.00037501144444105353;-0.00018750572222052677;2.346821619312113;3.910806848353526
135;15.299999999999999;31;1;1;-532;-0.00018750572222052677;-0.00018750572222052677;2.347571642200995;3.9104318369090856
136;15.4;31;1;1;-532;-0.00018750572222052677;0.0;2.3466341135898925;3.9104318369090856
137;15.500000000000002;33;0;0;-533;-0.00018750572222052677;-0.00018750572222052677;2.3470091250343335;3.9111818597979675
138;15.6;35;2;0;-531;-0.00018750572222052677;-0.00018750572222052677;2.3470091250343335;3.9100568254646446
139;15.700000000000001;37;1;0;-531;-0.00018750572222052677;-0.00037501144444105353;2.3492591937009797;3.916244514297922
140;15.9;36;0;1;-531;2.352634296700949;-0.00018750572222052677;2.3449465620899077;3.9106193426313056
141;16.0;1;1;2;-531;-0.00018750572222052677;-0.00018750572222052677;2.3479466536454363;3.910244331186865
142;16.099999999999998;31;1;3;-532;-0.00018750572222052677;-0.00037501144444105353;2.345509079256569;3.9106193426313056
143;16.2;31;1;1;-531;-0.00018750572222052677;-0.00018750572222052677;2.348134159367657;3.911369365520188
144;16.299999999999997;28;0;2;-531;-0.00018750572222052677;-0.00018750572222052677;2.347196630756554;3.910244331186865
145;16.4;35;1;2;-531;0.0;-0.00018750572222052677;2.3470091250343335;3.9104318369090856
146;16.5;36;1;1;-532;-0.00018750572222052677;-0.00037501144444105353;2.3462591021454515;3.9111818597979675
147;16.599999999999998;39;0;1;-531;-0.00018750572222052677;-0.00018750572222052677;2.3473841364787744;3.9104318369090856
148;16.799999999999997;36;1;2;-532;-0.00018750572222052677;0.0;2.346821619312113;3.909869319742424
149;16.9;37;1;2;-532;-0.00037501144444105353;-0.00018750572222052677;2.3466341135898925;3.9104318369090856
150;17.0;34;1;1;-532;-0.00018750572222052677;-0.00018750572222052677;2.3473841364787744;3.910994354075747
151;17.099999999999998;39;1;1;-532;0.0;-0.00018750572222052677;2.3477591479232154;3.910244331186865
152;17.2;36;1;1;-531;-0.00018750572222052677;-0.00018750572222052677;2.3479466536454363;3.910806848353526
153;17.299999999999997;33;2;1;-532;-0.00037501144444105353;0.0;2.3466341135898925;3.9104318369090856
154;17.4;31;1;1;-532;-0.00018750572222052677;-0.00018750572222052677;2.3477591479232154;3.9100568254646446
155;17.599999999999998;27;2;1;-531;0.0;-0.00018750572222052677;2.3460715964232306;3.910994354075747
156;17.7;40;1;2;-532;-0.00018750572222052677;-0.00037501144444105353;2.3466341135898925;3.910244331186865
157;17.799999999999997;35;2;1;-532;0.0;-0.00018750572222052677;2.3501967223120825;3.9147444685201576
158;17.9;46;2;1;1;-0.00018750572222052677;3.915306985686819;2.3456965849787896;3.9100568254646446
159;18.0;2;1;1;-531;-0.00018750572222052677;-0.00037501144444105353;2.34588409070101;3.910994354075747
160;18.099999999999998;28;2;1;-531;0.0;-0.00037501144444105353;2.346821619312113;3.9106193426313056
161;18.2;25;1;0;-531;-0.00018750572222052677;-0.00018750572222052677;2.3470091250343335;3.910244331186865
162;18.4;27;1;0;-531;0.0;-0.00018750572222052677;2.347571642200995;3.910244331186865
163;18.5;35;2;2;-531;-0.00018750572222052677;-0.00018750572222052677;2.347196630756554;3.909494308297983
164;18.599999999999998;36;1;2;-532;0.0;-0.00037501144444105353;2.3473841364787744;3.9096818140202036
165;18.7;27;1;1;-532;0.0;-0.00018750572222052677;2.3479466536454363;3.9096818140202036
166;18.799999999999997;28;1;2;-533;0.0;-0.00018750572222052677;2.346446607867672;3.9106193426313056
167;18.9;20;1;1;-533;-0.00018750572222052677;0.0;2.3477591479232154;3.9096818140202036
168;19.0;42;2;2;-531;-0.00018750572222052677;-0.00018750572222052677;2.3466341135898925;3.909869319742424
169;19.2;33;1;2;-531;-0.00018750572222052677;-0.00018750572222052677;2.3456965849787896;3.9106193426313056
170;19.299999999999997;35;2;2;-532;-0.00018750572222052677;-0.00018750572222052677;2.3456965849787896;3.909869319742424
171;19.4;41;1;2;-530;-0.00018750572222052677;0.0;2.3466341135898925;3.909869319742424
172;19.5;34;0;1;-532;-0.00018750572222052677;-0.00018750572222052677;2.347196630756554;3.9100568254646446
173;19.599999999999998;29;1;2;-532;-0.00018750572222052677;-0.00018750572222052677;2.346821619312113;3.9089317911313213
174;19.7;29;2;1;-531;-0.00018750572222052677;-0.00018750572222052677;2.3470091250343335;3.9096818140202036
175;19.799999999999997;33;1;1;-532;-0.00018750572222052677;-0.00037501144444105353;2.3470091250343335;3.9089317911313213
176;20.0;36;2;2;-532;-0.00037501144444105353;-0.00018750572222052677;2.3483216650898773;3.91211938840907
177;20.099999999999998;27;1;1;-532;0.0;-0.00037501144444105353;2.34588409070101;3.909869319742424
178;20.2;43;2;1;-533;0.0;-0.00018750572222052677;2.3453215735343487;3.9104318369090856
179;20.299999999999997;43;1;0;-532;-0.00018750572222052677;-0.00018750572222052677;2.346446607867672;3.9093068025757622
180;20.4;50;1;1;-532;0.0;-0.00018750572222052677;2.345509079256569;3.910244331186865
181;20.5;52;2;0;-530;0.0;-0.00018750572222052677;2.346821619312113;3.909494308297983
182;20.599999999999998;51;0;2;-531;-0.00037501144444105353;0.0;2.3462591021454515;3.909869319742424
183;20.7;45;1;2;-531;-0.00018750572222052677;-0.00018750572222052677;2.345134067812128;3.910244331186865
184;20.9;39;1;1;-532;-0.00018750572222052677;0.0;2.346446607867672;3.9093068025757622
185;21.0;33;1;1;-532;-0.00018750572222052677;-0.00018750572222052677;2.345509079256569;3.9089317911313213
186;21.099999999999998;29;1;2;-530;-0.00018750572222052677;-0.00018750572222052677;2.3462591021454515;3.908744285409101
187;21.2;32;0;1;-531;-0.00018750572222052677;-0.00018750572222052677;2.346821619312113;3.9093068025757622
188;21.299999999999997;26;1;0;-532;-0.00018750572222052677;-0.00018750572222052677;2.3477591479232154;3.909494308297983
189;21.4;27;2;2;-531;-0.00018750572222052677;-0.00018750572222052677;2.3462591021454515;3.9091192968535418
190;21.5;28;0;1;-533;-0.00037501144444105353;0.0;2.3449465620899077;3.909494308297983
191;21.7;26;1;1;-531;-0.00018750572222052677;0.0;2.3441965392010253;3.90836927396466
192;21.799999999999997;22;0;2;-532;-0.00018750572222052677;0.0;2.3466341135898925;3.908744285409101
193;21.9;24;1;1;-531;0.0;-0.00018750572222052677;2.3477591479232154;3.910244331186865
194;22.0;23;0;1;-531;0.0;-0.00018750572222052677;2.350009216589862;3.9091192968535418
195;22.099999999999998;37;1;1;-531;-0.00018750572222052677;0.0;2.3460715964232306;3.9081817682424393
