;Time;Thrust;Pressure1;Pressure2;Weight;Current;Voltage;Battery12V;Battery24V
0;0.0;5;2;2;-348;0.0;0.0;2.0631254615924557;3.5592336191900387
1;0.10000000000000142;28;-1;0;-372;-0.00018750572222052677;-0.00018750572222052677;2.0665005645924253;3.5626087221900082
2;0.20000000000000284;20;0;1;-365;0.0;0.0;2.069500656147954;2.0710007019257177
3;0.30000000000000426;22;0;2;-370;3.563546250801111;-0.00018750572222052677;2.062000427259133;3.557358561967834
4;0.3999999999999986;17;2;0;25;-0.00018750572222052677;2.069125644703513;2.0680006103701896;3.5596086306344796
5;0.6000000000000014;38;0;1;-353;-0.00018750572222052677;-0.00018750572222052677;2.069875667592395;3.5648587908566545
6;0.7000000000000028;37;0;0;-365;0.0;-0.00018750572222052677;2.0713757133701587;3.5637337565233316
7;0.8000000000000043;35;2;3;-359;-0.00018750572222052677;-0.00018750572222052677;2.062000427259133;3.5644837794122135
8;0.8999999999999986;10;2;1;-349;-0.00018750572222052677;0.0;2.0627504501480147;3.559421124912259
9;1.0;16;-1;1;3;2.069875667592395;-0.00018750572222052677;2.062937955870235;3.5592336191900387
10;1.2000000000000028;36;1;0;-365;-0.00018750572222052677;-0.00018750572222052677;2.073813287759026;2.0680006103701896
11;1.3000000000000043;17;2;2;-348;-0.00018750572222052677;-0.00018750572222052677;2.062000427259133;3.557733573412275
12;1.3999999999999986;32;0;2;-367;0.0;-0.00018750572222052677;2.0700631733146153;3.5648587908566545
13;1.5;-5;1;1;-17;-0.00018750572222052677;2.068750633259072;2.068375621814631;3.5599836420789206
14;1.6000000000000014;-2;1;2;-365;0.0;-0.00018750572222052677;2.059750358592486;3.5575460676900543
15;1.7000000000000028;35;0;1;-356;-0.00018750572222052677;0.0;2.066688070314646;3.563921262245552
16;1.8999999999999986;-4;1;-7;-353;-0.00018750572222052677;3.5654213080233164;2.063500473036897;3.5616711935789054
17;2.0;37;1;-20;0;2.0665005645924253;0.0;2.0625629444257942;3.5586711020233777
18;2.1000000000000014;28;0;0;-377;-0.00018750572222052677;-0.00018750572222052677;2.069688161870174;3.5665463423566393
19;2.200000000000003;-49;0;1;-347;-0.00018750572222052677;-0.00018750572222052677;2.062000427259133;3.5592336191900387
20;2.3000000000000043;33;2;1;-349;0.0;-0.00018750572222052677;2.073063264870144;3.5631712393566697
21;2.5;-19;3;2;-349;0.0;-0.00018750572222052677;2.0636879787591176;3.5579210791344953
22;2.6000000000000014;41;-1;1;-348;0.0;0.0;2.0693131504257334;2.073063264870144
23;2.700000000000003;38;1;2;-347;-0.00018750572222052677;-0.00018750572222052677;2.06462550737022;3.56335874507889
24;2.8000000000000043;39;0;1;25;0.0;-0.00018750572222052677;3.564296273689993;3.5599836420789206
25;2.8999999999999986;24;2;2;-371;-0.00018750572222052677;-0.00018750572222052677;2.067063081759087;2.069125644703513
26;3.0;3;10;1;-346;3.564296273689993;-0.00018750572222052677;2.06106289864803;3.5588586077455977
27;3.200000000000003;14;0;1;-348;-0.00018750572222052677;-0.00037501144444105353;2.063312967314676;3.5582960905789363
28;3.3000000000000043;35;3;-1;-359;-0.00018750572222052677;-0.00018750572222052677;2.0653755302591024;3.5599836420789206
29;3.3999999999999986;30;1;2;-372;-0.00018750572222052677;0.0;2.0717507248146;2.069875667592395
30;3.5;6;1;2;-347;2.0700631733146153;0.0;2.063312967314676;3.5618586993011263
31;3.6000000000000014;26;1;1;-349;-0.00018750572222052677;0.0;2.0648130130924405;3.5672963652455216
32;3.8000000000000043;36;0;2;-356;-0.00018750572222052677;-0.00018750572222052677;2.0700631733146153;3.567483870967742
33;3.8999999999999986;29;2;2;2;2.069125644703513;-0.00018750572222052677;2.0644380016479995;3.5605461592455825
34;4.0;22;1;0;-358;-0.00018750572222052677;0.0;2.069500656147954;3.56335874507889
35;4.100000000000001;33;25;4;-346;0.0;-0.00018750572222052677;2.0612504043702504;3.5605461592455825
36;4.200000000000003;26;2;2;-364;-0.00018750572222052677;-0.00018750572222052677;2.069500656147954;3.563546250801111
37;4.300000000000004;23;2;0;-358;0.0;-0.00018750572222052677;2.0653755302591024;3.560171147801141
38;4.5;35;-1;11;4;2.068375621814631;-0.00018750572222052677;2.061437910092471;3.5584835963011567
39;4.600000000000001;34;2;3;-357;0.0;-0.00018750572222052677;2.073438276314585;3.5654213080233164
40;4.700000000000003;36;2;2;-362;-0.00018750572222052677;-0.00018750572222052677;2.0704381847590563;3.563921262245552
41;4.800000000000004;36;2;17;-1;2.0672505874813076;-0.00018750572222052677;2.063312967314676;3.5592336191900387
42;4.899999999999999;36;1;0;-362;-0.00018750572222052677;-0.00018750572222052677;2.0719382305368206;3.567858882412183
43;5.0;27;20;0;-345;-0.00018750572222052677;0.0;2.063500473036897;3.5597961363567
44;5.200000000000003;24;1;1;-361;-0.00018750572222052677;3.5624212164677878;2.0627504501480147;3.557358561967834
45;5.300000000000004;100;0;1;-363;0.0;-0.00018750572222052677;2.069125644703513;3.563921262245552
46;5.399999999999999;214;1;1;-356;-0.00018750572222052677;-0.00018750572222052677;2.0706256904812768;3.5631712393566697
47;5.5;319;3;1;-360;-0.00018750572222052677;-0.00037501144444105353;2.0672505874813076;3.56673384807886
48;5.5;352;0;0;-359;-0.00037501144444105353;-0.00018750572222052677;2.072875759147923;3.5644837794122135
49;5.700000000000003;427;-3;1;-348;-0.00037501144444105353;-0.00018750572222052677;2.062937955870235;3.5586711020233777
50;5.800000000000004;540;1;0;-348;-0.00018750572222052677;0.0;2.0616254158146914;3.5562335276345105
51;5.899999999999999;619;3;2;617;-0.00018750572222052677;2.069500656147954;2.069500656147954;3.5612961821344644
52;6.0;679;1;1;-369;-0.00018750572222052677;-0.00018750572222052677;2.068750633259072;2.0693131504257334
53;6.100000000000001;687;0;-1;-347;-0.00018750572222052677;0.0;2.06106289864803;3.5582960905789363
54;6.200000000000003;759;1;744;-349;2.0676255989257486;0.0;2.0618129215369123;3.556796044801172
55;6.399999999999999;1;0;0;-359;-0.00018750572222052677;-0.00018750572222052677;2.0689381389812924;3.568796411023286
56;6.5;799;1;768;0;2.069125644703513;-0.00018750572222052677;2.0595628528702656;3.5571710562456134
57;6.600000000000001;803;1;1;-351;0.0;0.0;2.0723132419812615;3.5637337565233316
58;6.700000000000003;804;2;0;-375;-0.00018750572222052677;-0.00018750572222052677;2.063875484481338;3.5609211706900235
59;6.800000000000004;823;2;2;-358;-0.00018750572222052677;-0.00018750572222052677;2.060687887203589;3.5592336191900387
60;7.0;839;0;0;-347;-0.00037501144444105353;0.0;2.0708131962034972;3.565983825189978
61;7.100000000000001;837;2;810;3;0.0;-0.00018750572222052677;2.062937955870235;3.557358561967834
62;7.200000000000003;828;1;2;-377;-0.00037501144444105353;-0.00037501144444105353;2.070250679036836;2.0661255531479843
63;7.300000000000004;800;2;2;-346;-0.00018750572222052677;-0.00018750572222052677;2.0627504501480147;3.562983733634449
64;7.399999999999999;825;818;0;-348;3.5626087221900082;-0.00018750572222052677;2.059000335703604;3.557733573412275
65;7.600000000000001;825;819;-1;-349;-0.00018750572222052677;-0.00018750572222052677;2.0627504501480147;3.5592336191900387
66;7.700000000000003;845;3;-2;-348;-0.00018750572222052677;-0.00018750572222052677;2.0612504043702504;3.5592336191900387
67;7.800000000000004;857;1;1;-347;-0.00018750572222052677;-0.00018750572222052677;2.064250495925779;3.562046205023347
68;7.899999999999999;835;1;2;-347;-0.00018750572222052677;-0.00018750572222052677;2.0616254158146914;3.553795953245644
69;8.0;832;3;3;-365;-0.00018750572222052677;-0.00018750572222052677;2.05731278420362;3.5571710562456134
70;8.100000000000001;864;-1;2;-346;-0.00037501144444105353;0.0;2.055625232703635;3.5539834589678643
71;8.300000000000004;861;2;1;-353;-0.00018750572222052677;0.0;2.06106289864803;3.5624212164677878
72;8.399999999999999;848;2;0;846;0.0;2.06818811609241;3.563546250801111;3.5605461592455825
73;8.5;812;3;2;-346;-0.00018750572222052677;-0.00018750572222052677;2.060125370036927;3.5596086306344796
74;8.600000000000001;848;-1;2;-347;3.565983825189978;-0.00018750572222052677;2.059750358592486;3.559421124912259
75;8.700000000000003;870;0;1;0;-0.00018750572222052677;-0.00018750572222052677;2.0608753929258095;3.5584835963011567
76;8.899999999999999;873;0;1;-346;-0.00018750572222052677;-0.00018750572222052677;2.065563035981323;2.072125736259041
77;9.0;858;0;1;-349;-0.00018750572222052677;0.0;2.065563035981323;3.5596086306344796
78;9.100000000000001;870;0;2;-352;-0.00018750572222052677;-0.00018750572222052677;2.0627504501480147;3.557358561967834
79;9.200000000000003;910;1;1;-367;-0.00018750572222052677;-0.00018750572222052677;2.0689381389812924;3.564296273689993
80;9.300000000000004;891;881;-2;-358;3.564671285134434;-0.00018750572222052677;2.0625629444257942;3.5545459761345257
81;9.399999999999999;635;2;3;-350;-0.00018750572222052677;0.0;2.0653755302591024;3.5650462965788754
82;9.600000000000001;120;2;1;-365;-0.00018750572222052677;2.0693131504257334;2.0710007019257177;3.5586711020233777
83;9.700000000000003;36;26;0;-350;3.5631712393566697;-0.00018750572222052677;2.061437910092471;3.5586711020233777
84;9.800000000000004;34;2;1;-361;-0.00037501144444105353;-0.00018750572222052677;2.0605003814813685;3.55604602191229
85;9.899999999999999;28;0;2;-353;-0.00018750572222052677;-0.00018750572222052677;2.0653755302591024;3.5588586077455977
86;10.0;23;1;-1;-361;-0.00018750572222052677;0.0;2.0625629444257942;3.5581085848567158
87;10.200000000000003;36;2;2;1;-0.00018750572222052677;3.5641087679677725;2.056937772759179;3.560733664967803
88;10.300000000000004;38;2;1;-357;-0.00018750572222052677;-0.00018750572222052677;2.056000244148076;3.5549209875789667
89;10.399999999999999;23;4;2;-347;0.0;-0.00018750572222052677;2.069688161870174;3.55604602191229
90;10.5;27;36;0;-347;3.568233893856624;-0.00018750572222052677;2.0545001983703117;3.557733573412275
91;10.600000000000001;1;1;0;-359;0.0;0.0;2.0648130130924405;3.5597961363567
92;10.700000000000003;23;2;2;10;-0.00018750572222052677;2.072875759147923;3.562046205023347;3.556421033356731
93;10.899999999999999;39;2;3;-376;-0.00018750572222052677;0.0;2.0661255531479843;3.557733573412275
94;11.0;35;2;1;-347;0.0;-0.00037501144444105353;2.060125370036927;3.554733481856746
95;11.100000000000001;36;2;0;-357;2.0625629444257942;3.5597961363567;2.0621879329813533;3.552858424634541
96;11.200000000000003;36;2;0;-365;0.0;-0.00018750572222052677;2.063875484481338;3.556796044801172
97;11.300000000000004;28;0;0;-362;2.062937955870235;-0.00018750572222052677;2.0644380016479995;3.557358561967834
98;11.399999999999999;37;2;2;-346;-0.00018750572222052677;-0.00018750572222052677;2.063500473036897;3.5609211706900235
99;11.600000000000001;16;-1;1;0;-0.00018750572222052677;3.5579210791344953;2.065563035981323;3.562046205023347
100;11.700000000000003;36;1;1;-359;0.0;0.00018750572222052677;2.0708131962034972;3.5627962279122287
101;11.800000000000004;34;1;1;-352;-0.00018750572222052677;-0.00018750572222052677;2.0717507248146;2.073438276314585
102;11.899999999999999;29;0;1;28;-0.00018750572222052677;-0.00018750572222052677;3.565608813745537;3.5597961363567
103;12.0;22;3;1;-348;-0.00018750572222052677;-0.00018750572222052677;2.0621879329813533;3.556421033356731
104;12.100000000000001;39;0;1;-356;0.0;0.0;2.0704381847590563;3.56335874507889
105;12.300000000000004;30;40;0;-346;-0.00018750572222052677;-0.00018750572222052677;2.062937955870235;3.5584835963011567
106;12.399999999999999;32;0;2;-367;0.0;0.0;2.0704381847590563;3.5597961363567
107;12.5;31;1;1;-362;0.0;-0.00018750572222052677;2.0665005645924253;3.563546250801111
108;12.600000000000001;17;2;2;-345;-0.00018750572222052677;-0.00018750572222052677;2.063312967314676;3.5599836420789206
109;12.700000000000003;36;3;0;-347;-0.00018750572222052677;0.0;2.0591878414258247;3.557733573412275
110;12.899999999999999;36;0;0;-362;-0.00018750572222052677;-0.00018750572222052677;2.065938047425764;2.0751258278145697
111;13.0;17;2;1;-359;-0.00018750572222052677;0.0;2.065938047425764;3.559046113467818
112;13.100000000000001;34;1;1;-348;0.0;-0.00018750572222052677;2.072125736259041;2.0706256904812768
113;13.200000000000003;39;1;2;-354;-0.00018750572222052677;3.563546250801111;2.06106289864803;3.556983550523393
114;13.300000000000004;31;0;1;-387;-0.00018750572222052677;-0.00018750572222052677;3.563921262245552;3.557733573412275
115;13.399999999999999;19;2;0;-347;-0.00018750572222052677;-0.00018750572222052677;2.0625629444257942;3.5592336191900387
116;13.600000000000001;36;1;39;1;2.069500656147954;-0.00018750572222052677;2.062937955870235;3.5571710562456134
117;13.700000000000003;36;1;2;-359;0.0;-0.00018750572222052677;2.0710007019257177;3.565608813745537
118;13.800000000000004;38;1;39;1;2.068750633259072;-0.00018750572222052677;2.0625629444257942;3.5562335276345105
119;13.899999999999999;32;2;0;-362;0.0;0.0;2.072875759147923;3.5631712393566697
120;14.0;0;2;0;-355;0.0;0.0;2.0621879329813533;3.5609211706900235
121;14.200000000000003;27;0;2;-346;-0.00018750572222052677;-0.00018750572222052677;2.0636879787591176;3.5571710562456134
122;14.300000000000004;24;2;1;-369;0.0;2.0704381847590563;2.067438093203528;3.559046113467818
123;14.399999999999999;15;1;2;-352;-0.00037501144444105353;-0.00018750572222052677;2.0618129215369123;3.5644837794122135
124;14.5;18;2;2;-347;-0.00018750572222052677;-0.00018750572222052677;2.062000427259133;3.5552959990234076
125;14.600000000000001;24;1;0;-359;0.0;-0.00037501144444105353;2.0713757133701587;3.5612961821344644
126;14.700000000000003;33;0;3;-363;-0.00018750572222052677;0.0;2.0704381847590563;3.561108676412244
127;14.899999999999999;2;1;0;-353;-0.00018750572222052677;-0.00018750572222052677;2.063500473036897;3.5663588366344188
128;15.0;15;2;2;-347;0.0;-0.00018750572222052677;2.06106289864803;3.559421124912259
129;15.100000000000001;26;1;2;22;-0.00018750572222052677;-0.00018750572222052677;3.567483870967742;3.557733573412275
130;15.200000000000003;39;2;2;-378;-0.00018750572222052677;-0.00018750572222052677;2.067438093203528;3.563546250801111
131;15.300000000000004;35;0;2;-363;-0.00018750572222052677;0.0;2.0717507248146;3.5644837794122135
132;15.399999999999999;11;1;2;-347;-0.00018750572222052677;-0.00018750572222052677;2.0636879787591176;3.55604602191229
133;15.600000000000001;41;2;0;-354;-0.00018750572222052677;0.0;2.064250495925779;3.556796044801172
134;15.700000000000003;25;3;0;-347;3.567108859523301;-0.00018750572222052677;2.0623754387035738;3.5584835963011567
135;15.800000000000004;28;1;2;-362;-0.00018750572222052677;-0.00018750572222052677;2.0708131962034972;3.5637337565233316
136;15.899999999999999;15;2;2;-359;-0.00018750572222052677;0.0;2.0657505417035433;3.5654213080233164
137;16.0;33;0;2;-348;-0.00018750572222052677;-0.00018750572222052677;2.065188024536882;3.5624212164677878
138;16.200000000000003;35;1;1;-349;-0.00018750572222052677;-0.00018750572222052677;2.065563035981323;3.5597961363567
139;16.300000000000004;37;2;0;-346;-0.00018750572222052677;-0.00018750572222052677;2.067813104647969;3.561108676412244
140;16.4;18;2;2;-347;-0.00018750572222052677;-0.00037501144444105353;2.0648130130924405;3.559421124912259
141;16.5;1;0;1;36;-0.00018750572222052677;-0.00018750572222052677;3.5689839167455064;3.5624212164677878
142;16.6;5;20;3;-346;3.567858882412183;0.0;2.062000427259133;3.559421124912259
143;16.800000000000004;34;1;-1;-348;-0.00018750572222052677;-0.00037501144444105353;2.06462550737022;3.5581085848567158
144;16.9;37;1;2;2;-0.00018750572222052677;-0.00018750572222052677;2.063875484481338;3.560733664967803
145;17.0;33;2;1;-346;-0.00018750572222052677;-0.00037501144444105353;2.065188024536882;3.5599836420789206
146;17.1;36;2;1;-347;-0.00018750572222052677;0.0;2.0672505874813076;3.5618586993011263
147;17.200000000000003;40;0;1;-347;0.0;-0.00037501144444105353;2.065188024536882;3.5597961363567
148;17.300000000000004;39;2;0;-352;-0.00018750572222052677;-0.00018750572222052677;2.0676255989257486;3.5616711935789054
149;17.5;36;2;1;-347;0.0;-0.00037501144444105353;2.0668755760368667;3.5597961363567
150;17.6;36;3;2;-348;0.0;-0.00037501144444105353;2.064250495925779;3.560358653523362
151;17.700000000000003;19;2;3;22;-0.00018750572222052677;-0.00018750572222052677;3.5680463881344036;3.559046113467818
152;17.800000000000004;34;0;0;-348;-0.00018750572222052677;-0.00037501144444105353;2.06462550737022;3.5624212164677878
153;17.9;36;2;2;-349;-0.00018750572222052677;-0.00018750572222052677;2.0644380016479995;3.5618586993011263
154;18.1;36;2;2;-363;0.0;-0.00037501144444105353;2.0715632190923796;3.565608813745537
155;18.200000000000003;35;1;1;-347;0.0;-0.00018750572222052677;2.0653755302591024;3.5588586077455977
156;18.300000000000004;34;2;2;-346;-0.00018750572222052677;-0.00018750572222052677;2.0648130130924405;3.561483687856685
157;18.4;35;1;1;-350;-0.00018750572222052677;-0.00018750572222052677;2.0680006103701896;2.069875667592395
158;18.5;33;2;2;-347;0.0;0.0;2.0648130130924405;3.5605461592455825
159;18.700000000000003;37;1;2;-346;-0.00018750572222052677;-0.00018750572222052677;2.0680006103701896;3.5612961821344644
160;18.800000000000004;37;1;1;-348;0.0;-0.00018750572222052677;2.0661255531479843;3.560358653523362
161;18.9;38;0;2;-348;0.0;-0.00037501144444105353;2.0618129215369123;3.560171147801141
162;19.0;33;1;1;-346;-0.00018750572222052677;-0.00018750572222052677;2.06462550737022;3.562046205023347
163;19.1;37;2;2;-348;-0.00018750572222052677;-0.00018750572222052677;2.0640629902035585;3.5599836420789206
164;19.200000000000003;36;1;33;-366;2.0710007019257177;3.565233802301096;2.063312967314676;3.561483687856685
165;19.4;38;0;1;-347;-0.00018750572222052677;0.0;2.067813104647969;3.5605461592455825
166;19.5;37;2;2;-347;-0.00018750572222052677;0.0;2.067438093203528;3.5612961821344644
167;19.6;14;0;2;-346;-0.00018750572222052677;-0.00018750572222052677;2.0665005645924253;3.56335874507889
168;19.700000000000003;38;1;1;-347;0.0;0.0;2.0723132419812615;3.565233802301096
169;19.800000000000004;14;10;2;-346;3.5648587908566545;-0.00018750572222052677;2.0640629902035585;3.556796044801172
170;20.0;11;2;1;2;2.0685631275368515;-0.00018750572222052677;2.0627504501480147;3.5579210791344953
171;20.1;28;0;1;-348;-0.00018750572222052677;-0.00018750572222052677;2.0648130130924405;3.561108676412244
172;20.200000000000003;18;2;0;-347;-0.00018750572222052677;0.0;2.061437910092471;3.567858882412183
173;20.300000000000004;40;3;1;-347;-0.00018750572222052677;-0.00018750572222052677;2.0719382305368206;3.5654213080233164
174;20.4;7;2;2;-347;-0.00018750572222052677;-0.00018750572222052677;2.059750358592486;3.5592336191900387
175;20.6;37;0;0;-347;-0.00037501144444105353;-0.00018750572222052677;2.072500747703482;2.071188207647938
176;20.700000000000003;14;2;2;-346;-0.00018750572222052677;-0.00018750572222052677;2.0636879787591176;3.5622337107455673
177;20.800000000000004;35;8;2;-346;-0.00018750572222052677;-0.00018750572222052677;2.062937955870235;3.559046113467818
178;20.9;20;-1;1;-355;-0.00018750572222052677;-0.00037501144444105353;3.561483687856685;3.5596086306344796
179;21.0;0;2;3;-354;0.0;-0.00018750572222052677;2.06106289864803;3.5654213080233164
180;21.1;37;1;28;-2;2.0708131962034972;0.0;2.0648130130924405;3.5582960905789363
181;21.300000000000004;37;2;2;-358;0.0;-0.00018750572222052677;2.074938322092349;3.562983733634449
182;21.4;35;1;2;-356;-0.00037501144444105353;-0.00018750572222052677;2.0653755302591024;3.5637337565233316
183;21.5;22;0;2;-347;-0.00018750572222052677;-0.00018750572222052677;2.063312967314676;3.555108493301187
184;21.6;28;2;2;15;0.0;-0.00018750572222052677;3.5616711935789054;3.557733573412275
185;21.700000000000003;2;1;1;-358;-0.00018750572222052677;-0.00018750572222052677;2.0605003814813685;3.567483870967742
186;21.9;28;0;1;-362;-0.00018750572222052677;0.0;2.0710007019257177;3.562046205023347
187;22.0;34;2;1;-361;-0.00018750572222052677;0.0;2.0680006103701896;2.067813104647969
188;22.1;36;0;11;0;2.0708131962034972;-0.00037501144444105353;2.063312967314676;3.5517333903012176
189;22.200000000000003;39;1;1;-360;-0.00018750572222052677;-0.00037501144444105353;2.0736257820368054;3.5641087679677725
