;Time;Thrust;Pressure1;Pressure2;Weight;Current;Voltage;Battery12V;Battery24V
0;0.0;-42;-10;2;-350;-0.00037501144444105353;0.0;2.295257545701468;3.715988402966399
1;0.1;19;1;2;-81;3.725926206244087;-0.00018750572222052677;2.2879448225348673;3.708863185522019
2;0.2;42;-2;1;-305;0.0;-0.00018750572222052677;2.2881323282570882;3.71280080568865
3;0.3;225;0;1;-399;0.0;-0.00018750572222052677;2.294882534257027;3.711300759910886
4;0.5;51;0;0;256;-0.00018750572222052677;0.0;2.287757316812647;3.7114882656331063
5;0.6;121;-8;3;-308;0.0;-0.00018750572222052677;2.2920699484237193;3.715238380077517
6;0.7;-7;1;0;-282;-0.00018750572222052677;-0.00018750572222052677;2.2890698568681906;3.7075506454664757
7;0.8;135;2;-3;-446;-0.00018750572222052677;-0.00018750572222052677;2.2930074770348217;3.7122382885219887
8;0.9;399;-8;1;-325;-0.00018750572222052677;-0.00018750572222052677;2.2965700857570117;3.7154258857997378
9;0.9;22;2;4;75;-0.00018750572222052677;-0.00018750572222052677;2.2875698110904263;3.7083006683553577
10;1.0;164;-2;-8;-323;0.0;-0.00018750572222052677;2.298445142979217;3.718425977355266
11;1.2;55;1;3;-311;-0.00018750572222052677;-0.00018750572222052677;2.287007293923765;3.708113162633137
12;1.3;21;0;5;-261;-0.00018750572222052677;-0.00018750572222052677;2.2881323282570882;3.710175725577563
13;1.4;199;-2;2;-288;0.0;-0.00018750572222052677;2.2973201086458936;3.7143008514664144
14;1.5;52;1;1;-89;-0.00018750572222052677;-0.00018750572222052677;2.2903823969237345;3.709800714133122
15;1.6;15;-4;-8;-353;-0.00018750572222052677;0.0;2.2945075228125855;3.716738425855281
16;1.7;74;0;0;-416;-0.00018750572222052677;-0.00018750572222052677;2.2875698110904263;3.708488174077578
17;1.8;26;1;0;-73;-0.00018750572222052677;-0.00018750572222052677;2.2907574083681754;3.7114882656331063
18;2.0;275;4;2;-336;-0.00018750572222052677;0.0;2.2969450972014527;3.7171134372997225
19;2.1;19;-1;1;-291;0.0;-0.00018750572222052677;2.2868197882015444;3.707738151188696
20;2.2;-19;3;-4;5;0.0;0.0;2.2926324655903803;3.7126132999664296
21;2.3;407;-4;0;-244;-0.00018750572222052677;-0.00018750572222052677;2.2973201086458936;3.7111132541886658
22;2.4;37;0;-1;-145;-0.00018750572222052677;0.0;2.2894448683126316;3.7103632312997834
23;2.5;16;-2;-4;-307;0.0;-0.00018750572222052677;2.289257362590411;3.715238380077517
24;2.6;146;2;1;-223;-0.00018750572222052677;0.0;2.295632557145909;3.711300759910886
25;2.7;-3;-5;-4;226;-0.00018750572222052677;-0.00018750572222052677;2.290569902645955;3.7118632770775473
26;2.9;-66;1;-1;-326;-0.00018750572222052677;-0.00018750572222052677;2.296757591479232;3.716738425855281
27;3.0;33;2;2;-186;0.0;-0.00018750572222052677;2.2922574541459397;3.7129883114108706
28;3.1;44;-9;-7;-148;-0.00037501144444105353;-0.00018750572222052677;2.290194891201514;3.711300759910886
29;3.2;61;1;2;-287;0.0;-0.00018750572222052677;2.2986326487014375;3.710738242744225
30;3.3;29;0;0;-47;0.0;0.0;2.289819879757073;3.713738334299753
31;3.4;39;1;-1;-290;-0.00018750572222052677;-0.00018750572222052677;2.2918824427014988;3.718613483077487
32;3.5;-4;-1;-2;-334;-0.00018750572222052677;-0.00018750572222052677;2.291507431257058;3.710175725577563
33;3.7;58;3;-9;148;-0.00037501144444105353;0.0;2.293569994201483;3.7126132999664296
34;3.8;295;-10;3;-288;0.0;-0.00018750572222052677;2.2990076601458784;3.709800714133122
35;3.9;33;3;-1;-350;-0.00018750572222052677;-0.00018750572222052677;2.2883198339793087;3.70905069124424
36;4.0;28;0;-6;-321;-0.00037501144444105353;-0.00018750572222052677;2.2881323282570882;3.7143008514664144
37;4.1;68;0;2;-302;0.0;0.0;2.3001326944792018;3.7139258400219735
38;4.2;45;0;3;-244;-0.00018750572222052677;-0.00018750572222052677;2.2903823969237345;3.714113345744194
39;4.3;172;-10;0;-281;0.0;-0.00037501144444105353;2.2976951200903346;3.716738425855281
40;4.5;22;2;1;-353;-0.00018750572222052677;0.0;2.2890698568681906;3.7092381969664605
41;4.6;-30;-4;-12;-170;0.0;0.0;2.28888235114597;3.708113162633137
42;4.7;242;-1;1;-357;-0.00018750572222052677;0.0;2.2999451887569813;3.7109257484664453
43;4.8;34;1;3;-22;0.0;-0.00018750572222052677;2.287757316812647;3.70905069124424
44;4.9;21;-19;-9;-328;-0.00018750572222052677;0.0;2.289819879757073;3.7139258400219735
45;5.0;112;2;1;-323;-0.00018750572222052677;0.0;2.3010702230903046;3.7096132084109015
46;5.1;27;2;7;290;-0.00018750572222052677;-0.00018750572222052677;2.289257362590411;3.7092381969664605
47;5.3;42;-8;-2;-300;-0.00018750572222052677;-0.00018750572222052677;2.290944914090396;3.7195510116885893
48;5.4;38;1;0;-296;-0.00018750572222052677;-0.00037501144444105353;2.2903823969237345;3.7071756340220343
49;5.5;51;0;-7;-317;-0.00018750572222052677;-0.00018750572222052677;2.293569994201483;3.7133633228553116
50;5.6;226;-1;1;-312;0.0;0.0;2.2986326487014375;3.713175817133091
51;5.7;40;-1;-3;-337;-0.00018750572222052677;-0.00018750572222052677;2.2881323282570882;3.705863093966491
52;5.8;158;2;4;-138;-0.00037501144444105353;-0.00018750572222052677;2.295257545701468;3.71636341441084
53;5.9;133;-3;2;-288;-0.00018750572222052677;-0.00018750572222052677;2.3005077059236427;3.708863185522019
54;6.0;9;4;-5;233;-0.00018750572222052677;0.0;2.2875698110904263;3.7099882198553424
55;6.2;154;-10;-3;-321;-0.00018750572222052677;-0.00018750572222052677;2.290194891201514;3.7156133915219582
56;6.3;141;2;1;-254;2.2976951200903346;0.0;2.289257362590411;3.7064256111331524
57;6.4;-28;0;-5;-271;-0.00018750572222052677;-0.00018750572222052677;2.2911324198126164;3.7109257484664453
58;6.5;423;0;2;-291;-0.00018750572222052677;-0.00018750572222052677;2.2976951200903346;3.710738242744225
59;6.6;57;2;2;-24;0.0;-0.00018750572222052677;2.28888235114597;3.7096132084109015
60;6.7;45;-4;-7;-298;-0.00018750572222052677;-0.00018750572222052677;2.2879448225348673;3.7174884487441635
61;6.8;64;1;3;-300;-0.00018750572222052677;-0.00018750572222052677;2.293945005645924;3.7083006683553577
62;7.0;33;17;3;-51;-0.00018750572222052677;-0.00018750572222052677;2.288507339701529;3.710175725577563
63;7.1;134;1;0;-293;-0.00037501144444105353;-0.00018750572222052677;2.2937574999237036;3.7182384716330454
64;7.2;62;1;1;-298;-0.00018750572222052677;0.0;2.289257362590411;3.708863185522019
65;7.3;23;2;-5;-224;-0.00037501144444105353;-0.00018750572222052677;2.289819879757073;3.7122382885219887
66;7.4;412;0;2;-329;0.0;-0.00018750572222052677;2.2995701773125403;3.713738334299753
67;7.5;43;1;0;-374;-0.00018750572222052677;-0.00018750572222052677;2.290194891201514;3.7096132084109015
68;7.6;74;0;-8;-374;0.0;-0.00018750572222052677;2.28888235114597;3.714863368633076
69;7.8;215;1;2;-360;-0.00018750572222052677;-0.00018750572222052677;2.2995701773125403;3.708488174077578
70;7.9;24;16;-3;17;0.0;-0.00037501144444105353;2.2871947996459854;3.711300759910886
71;8.0;177;-1;-2;-287;-0.00018750572222052677;-0.00018750572222052677;2.2941325113681446;3.717300943021943
72;8.1;94;2;3;-310;-0.00018750572222052677;-0.00018750572222052677;2.2883198339793087;3.7086756797997986
73;8.2;28;1;3;196;0.0;-0.00037501144444105353;2.2924449598681598;3.7143008514664144
74;8.3;443;-4;1;-292;-0.00037501144444105353;-0.00018750572222052677;2.2954450514236884;3.717675954466384
75;8.4;49;2;3;230;-0.00018750572222052677;-0.00018750572222052677;2.2886948454237497;3.710175725577563
76;8.6;-28;3;-10;-338;-0.00018750572222052677;-0.00018750572222052677;2.2937574999237036;3.7165509201330607
77;8.7;67;0;1;-318;-0.00018750572222052677;-0.00018750572222052677;2.289257362590411;3.709800714133122
78;8.8;79;1;-21;116;-0.00018750572222052677;0.0;2.2920699484237193;3.7114882656331063
79;8.9;71;0;0;-350;0.0;-0.00018750572222052677;2.2954450514236884;3.7143008514664144
80;9.0;40;1;-5;-244;0.0;-0.00018750572222052677;2.2883198339793087;3.7092381969664605
81;9.1;32;1;1;-255;0.0;-0.00018750572222052677;2.289819879757073;3.7133633228553116
82;9.2;232;1;2;-314;0.0;-0.00018750572222052677;2.299195165868099;3.709800714133122
83;9.4;40;2;1;-20;0.0;-0.00018750572222052677;2.286632282479324;3.7122382885219887
84;9.5;71;2;0;-343;-0.00018750572222052677;-0.00018750572222052677;2.2950700399792474;3.717300943021943
85;9.6;34;1;2;-319;0.0;-0.00018750572222052677;2.2916949369792783;3.7096132084109015
86;9.7;63;1;-12;-144;0.0;-0.00037501144444105353;2.290944914090396;3.710738242744225
87;9.8;150;3;3;-302;-0.00018750572222052677;0.0;2.3003202002014222;3.715988402966399
88;9.9;35;2;1;-100;-0.00018750572222052677;0.0;2.290194891201514;3.708488174077578
89;10.0;47;1;-7;-322;-0.00018750572222052677;-0.00018750572222052677;2.289819879757073;3.716738425855281
90;10.1;57;2;2;-331;0.0;-0.00018750572222052677;2.299195165868099;3.708113162633137
91;10.3;27;2;1;-200;0.0;-0.00018750572222052677;2.289632374034852;3.7122382885219887
92;10.4;3;-8;2;-275;-0.00018750572222052677;-0.00018750572222052677;2.2930074770348217;3.715988402966399
93;10.5;7;3;-3;-304;0.0;0.0;2.28888235114597;3.7083006683553577
94;10.6;37;1;-11;154;-0.00037501144444105353;-0.00018750572222052677;2.289257362590411;3.711300759910886
95;10.7;129;3;0;-258;0.0;-0.00018750572222052677;2.3003202002014222;3.709800714133122
96;10.8;24;-2;-3;82;0.00018750572222052677;-0.00018750572222052677;2.2879448225348673;3.7099882198553424
97;10.9;155;0;-4;-281;0.0;0.0;2.2903823969237345;3.714488357188635
98;11.1;169;0;3;-246;-0.00018750572222052677;0.0;2.2954450514236884;3.708863185522019
99;11.2;23;0;1;-117;-0.00018750572222052677;-0.00018750572222052677;2.2883198339793087;3.709425702688681
100;11.3;152;-1;1;-341;0.0;-0.00018750572222052677;2.2920699484237193;3.717675954466384
101;11.4;35;2;1;-160;0.0;0.0;2.288507339701529;3.7083006683553577
102;11.5;9;-4;-12;8;-0.00018750572222052677;-0.00037501144444105353;2.2941325113681446;3.71636341441084
103;11.6;187;2;2;-371;-0.00018750572222052677;-0.00018750572222052677;2.2978826258125555;3.709800714133122
104;11.7;61;2;7;-379;-0.00018750572222052677;0.0;2.2868197882015444;3.7092381969664605
105;11.9;11;-5;-7;-289;0.0;-0.00018750572222052677;2.2922574541459397;3.7158008972441787
106;12.0;286;4;0;-383;-0.00018750572222052677;-0.00018750572222052677;2.2965700857570117;3.706238105410932
107;12.1;14;1;0;221;-0.00018750572222052677;0.0;2.2879448225348673;3.711675771355327
108;12.2;53;0;2;-296;-0.00018750572222052677;-0.00018750572222052677;2.2926324655903803;3.7171134372997225
109;12.3;53;0;-1;-327;-0.00018750572222052677;-0.00018750572222052677;2.2881323282570882;3.7068006225775934
110;12.4;24;1;5;-291;-0.00018750572222052677;-0.00018750572222052677;2.2918824427014988;3.7109257484664453
111;12.5;-33;-3;0;-301;-0.00018750572222052677;0.0;2.3001326944792018;3.714863368633076
112;12.7;37;0;7;-122;-0.00018750572222052677;-0.00037501144444105353;2.290194891201514;3.7075506454664757
113;12.8;13;8;-9;-235;0.0;-0.00018750572222052677;2.2924449598681598;3.7139258400219735
114;12.9;351;0;1;-267;-0.00018750572222052677;0.0;2.2950700399792474;3.7086756797997986
115;13.0;34;-5;-1;268;-0.00018750572222052677;-0.00037501144444105353;2.287757316812647;3.7103632312997834
116;13.1;87;-22;-3;-299;-0.00018750572222052677;-0.00018750572222052677;2.2920699484237193;3.7182384716330454
117;13.2;231;-2;1;-117;-0.00018750572222052677;0.0;2.2920699484237193;3.7079256569109167
118;13.3;54;1;-1;-168;-0.00018750572222052677;-0.00018750572222052677;2.2883198339793087;3.709425702688681
119;13.4;-8;-12;0;-324;-0.00018750572222052677;-0.00018750572222052677;2.295257545701468;3.720488540299692
120;13.6;53;3;3;-265;0.0;-0.00018750572222052677;2.2890698568681906;3.7071756340220343
121;13.7;43;-7;2;-130;-0.00018750572222052677;-0.00018750572222052677;2.2961950743125707;3.7214260689107945
122;13.8;69;1;2;-290;-0.00018750572222052677;0.0;2.294320017090365;3.7083006683553577
123;13.9;29;0;2;170;-0.00018750572222052677;-0.00018750572222052677;2.287382305368206;3.7103632312997834
124;14.0;93;-10;3;-316;0.0;-0.00018750572222052677;2.2937574999237036;3.7165509201330607
125;14.1;42;-1;3;-313;-0.00018750572222052677;-0.00018750572222052677;2.2879448225348673;3.7086756797997986
126;14.2;116;2;1;-208;-0.00018750572222052677;-0.00018750572222052677;2.2890698568681906;3.7111132541886658
127;14.4;154;-1;1;-318;-0.00018750572222052677;-0.00018750572222052677;2.2986326487014375;3.7156133915219582
128;14.5;15;2;0;-370;-0.00037501144444105353;-0.00018750572222052677;2.2879448225348673;3.708863185522019
129;14.6;-8;-2;-8;-289;-0.00018750572222052677;-0.00018750572222052677;2.2879448225348673;3.7122382885219887
130;14.7;258;0;1;-317;-0.00018750572222052677;-0.00018750572222052677;2.29600756859035;3.708488174077578
131;14.8;30;0;-1;-43;-0.00018750572222052677;-0.00018750572222052677;2.289257362590411;3.7073631397442552
132;14.9;72;-18;1;-286;-0.00018750572222052677;-0.00018750572222052677;2.2900073854792935;3.711675771355327
133;15.0;-1;1;1;-262;0.0;-0.00037501144444105353;2.2907574083681754;3.706238105410932
134;15.2;27;0;-22;32;-0.00018750572222052677;-0.00018750572222052677;2.288507339701529;3.7079256569109167
135;15.3;302;-8;1;-313;-0.00018750572222052677;-0.00018750572222052677;2.29600756859035;3.7188009887997073
136;15.4;59;2;2;-256;-0.00018750572222052677;-0.00018750572222052677;2.2875698110904263;3.7079256569109167
137;15.5;30;-1;-6;-254;-0.00018750572222052677;0.0;2.2920699484237193;3.7105507370220043
138;15.6;45;3;1;-334;0.0;-0.00018750572222052677;2.2958200628681293;3.7105507370220043
139;15.7;41;-1;-2;2;-0.00018750572222052677;-0.00018750572222052677;2.287757316812647;3.7096132084109015
140;15.8;38;1;-11;-336;2.2918824427014988;3.714113345744194;2.2881323282570882;3.71280080568865
141;16.0;65;0;-2;-295;-0.00018750572222052677;-0.00037501144444105353;2.290944914090396;3.7073631397442552
142;16.1;61;2;-26;166;0.0;-0.00037501144444105353;2.2916949369792783;3.7111132541886658
143;16.2;28;0;2;-321;0.0;0.0;2.2963825800347912;3.715238380077517
144;16.3;50;0;0;-323;-0.00018750572222052677;0.0;2.2894448683126316;3.708863185522019
145;16.4;33;2;-5;-83;-0.00018750572222052677;-0.00018750572222052677;2.2922574541459397;3.714863368633076
146;16.5;345;-2;0;-322;0.0;-0.00018750572222052677;2.2973201086458936;3.710738242744225
147;16.6;50;6;-1;-20;-0.00018750572222052677;0.0;2.2879448225348673;3.7103632312997834
148;16.7;60;3;-3;-281;-0.00018750572222052677;-0.00018750572222052677;2.291507431257058;3.7146758629108554
149;16.9;403;1;1;-349;0.0;-0.00018750572222052677;2.2913199255348373;3.706988128299814
150;17.0;24;1;-1;-276;0.0;-0.00018750572222052677;2.2871947996459854;3.708113162633137
151;17.1;-16;-8;0;-289;0.0;-0.00018750572222052677;2.2973201086458936;3.7139258400219735
152;17.2;26;2;3;-117;0.0;0.0;2.289632374034852;3.706988128299814
153;17.3;65;3;-15;-88;-0.00018750572222052677;0.0;2.290944914090396;3.7105507370220043
154;17.4;42;2;3;-349;-0.00037501144444105353;-0.00018750572222052677;2.2973201086458936;3.713738334299753
155;17.5;30;2;1;-361;-0.00018750572222052677;-0.00018750572222052677;2.2881323282570882;3.709425702688681
156;17.7;36;-7;0;-294;-0.00037501144444105353;-0.00018750572222052677;2.2881323282570882;3.7122382885219887
157;17.8;216;1;2;-281;0.0;-0.00018750572222052677;2.3001326944792018;3.7079256569109167
158;17.9;51;1;3;6;-0.00037501144444105353;-0.00037501144444105353;2.28888235114597;3.713550828577532
159;18.0;85;-14;0;-348;-0.00037501144444105353;-0.00018750572222052677;2.2986326487014375;3.715988402966399
160;18.1;25;0;2;-424;-0.00018750572222052677;-0.00018750572222052677;2.2879448225348673;3.708488174077578
161;18.2;14;-4;-9;-78;-0.00018750572222052677;-0.00018750572222052677;2.2922574541459397;3.7105507370220043
162;18.3;67;0;2;-361;-0.00018750572222052677;-0.00018750572222052677;2.2982576372569965;3.7086756797997986
163;18.5;46;1;2;-386;-0.00037501144444105353;-0.00018750572222052677;2.289632374034852;3.711300759910886
164;18.6;14;-6;-3;-298;0.0;-0.00018750572222052677;2.290194891201514;3.715988402966399
165;18.7;316;2;2;-312;0.0;0.0;2.2918824427014988;3.7092381969664605
166;18.8;44;0;-3;-95;0.0;0.0;2.2894448683126316;3.7111132541886658
167;18.9;37;0;1;-272;-0.00037501144444105353;-0.00018750572222052677;2.2982576372569965;3.715988402966399
168;19.0;35;1;3;-100;-0.00018750572222052677;-0.00037501144444105353;2.2875698110904263;3.7086756797997986
169;19.1;44;-7;-9;-84;0.0;-0.00018750572222052677;2.291507431257058;3.71280080568865
170;19.3;207;-1;2;-348;0.0;-0.00018750572222052677;2.299195165868099;3.7111132541886658
171;19.4;45;1;1;-217;-0.00018750572222052677;-0.00018750572222052677;2.287757316812647;3.7096132084109015
172;19.5;-5;-13;-8;-320;-0.00018750572222052677;0.0;2.2969450972014527;3.7150508743552964
173;19.6;37;3;2;-331;-0.00018750572222052677;0.0;2.2911324198126164;3.70905069124424
174;19.7;153;1;-12;-232;-0.00018750572222052677;0.0;2.290944914090396;3.7079256569109167
175;19.8;71;-2;0;-348;-0.00018750572222052677;0.0;2.3001326944792018;3.7150508743552964
176;19.9;55;3;2;-189;0.0;-0.00018750572222052677;2.2913199255348373;3.710175725577563
177;20.0;54;2;-4;-365;-0.00018750572222052677;-0.00018750572222052677;2.290569902645955;3.7143008514664144
178;20.2;-87;1;3;-420;-0.00018750572222052677;-0.00018750572222052677;2.295257545701468;3.709425702688681
179;20.3;44;-3;-2;-172;-0.00018750572222052677;0.0;2.2883198339793087;3.7111132541886658
180;20.4;7;-1;0;-286;0.0;0.0;2.2945075228125855;3.7161759086886197
181;20.5;-4;1;1;-266;-0.00018750572222052677;0.0;2.290944914090396;3.708863185522019
182;20.6;26;1;-5;-152;0.0;0.0;2.2890698568681906;3.7083006683553577
183;20.7;29;2;2;-325;-0.00018750572222052677;-0.00018750572222052677;2.2995701773125403;3.7109257484664453
184;20.8;37;2;4;-71;0.0;-0.00018750572222052677;2.2879448225348673;3.7086756797997986
