;Time;Thrust;Pressure1;Pressure2;Weight;Current;Voltage;Battery12V;Battery24V
0;0.0;-645;-323;-323;-645;-0.00018750572222052677;-0.00018750572222052677;2.181629078035829;3.5837968688009276
1;0.1;24368;-323;-323;-645;-0.00037501144444105353;-0.00018750572222052677;2.1868792382580033;3.5807967772453995
2;0.1;-645;-807;-1452;-445;-0.00018750572222052677;-0.00018750572222052677;2.1850041810357985;3.582484328745384
3;0.2;-645;-323;-323;-645;-0.00018750572222052677;0.0;2.1913793755912963;2.191754387035737
4;0.4;-645;-323;-323;-323;-0.00018750572222052677;3.589234534745323;2.184254158146916;3.5841718802453686
5;0.5;25981;-1291;-1452;-645;-0.00018750572222052677;-0.00018750572222052677;2.1829416180913723;3.583609363078707
6;0.6;-645;-323;-323;-32768;-0.00018750572222052677;-0.00018750572222052677;2.181066560869167;3.583609363078707
7;0.7;-645;-323;-323;-645;-0.00018750572222052677;-0.00018750572222052677;2.1857542039246804;3.58098428296762
8;0.8;26950;-1452;-323;-645;-0.00018750572222052677;-0.00018750572222052677;2.1853791924802395;3.5837968688009276
9;0.9;-645;-323;-1130;-445;-0.00037501144444105353;0.0;2.1846291695913576;3.5817343058565023
10;1.0;-645;-323;-323;-645;-0.00018750572222052677;-0.00018750572222052677;2.1836916409802547;3.5796717429120766
11;1.2;24690;-323;-323;-645;-0.00018750572222052677;-0.00037501144444105353;2.1829416180913723;3.5841718802453686
12;1.3;-645;-807;-1452;-445;0.0;-0.00018750572222052677;2.1821915952024904;3.5807967772453995
13;1.4;-645;-323;-323;-645;0.0;-0.00018750572222052677;2.1829416180913723;3.5811717886898404
14;1.5;-645;-323;-323;-645;-0.00018750572222052677;0.0;2.1831291238135933;3.581921811578723
15;1.6;28402;-1291;-1452;-645;-0.00018750572222052677;0.0;2.1831291238135933;3.580609271523179
16;1.7;-645;-323;-323;-445;-0.00018750572222052677;-0.00018750572222052677;2.183879146702475;3.580234260078738
17;1.8;-645;-323;-323;-645;-0.00018750572222052677;-0.00018750572222052677;2.18556669820246;3.581921811578723
18;2.0;27272;-1452;-323;-645;-0.00037501144444105353;-0.00018750572222052677;2.1846291695913576;3.5813592944120614
19;2.1;-645;-323;-807;-445;-0.00037501144444105353;-0.00018750572222052677;2.1861292153691214;3.5811717886898404
20;2.2;-645;-323;-323;-645;-0.00018750572222052677;-0.00037501144444105353;2.1833166295358137;3.5834218573564867
21;2.3;24368;-323;-323;-645;-0.00037501144444105353;-0.00018750572222052677;2.188191778313547;3.587734488967559
22;2.4;-645;-1130;-1452;25820;-0.00018750572222052677;0.0;3.587734488967559;3.5834218573564867
23;2.5;-645;-323;-323;-645;-0.00018750572222052677;-0.00018750572222052677;2.1850041810357985;3.5813592944120614
24;2.6;-645;-323;-323;-645;-0.00018750572222052677;-0.00037501144444105353;2.1840666524246957;3.583609363078707
25;2.8;13878;-1291;-1452;18530;-0.00037501144444105353;-0.00037501144444105353;2.1814415723136085;3.5826718344676043
26;2.9;-645;-323;-323;-645;-0.00037501144444105353;-0.00018750572222052677;2.1829416180913723;3.5834218573564867
27;3.0;-645;-323;-323;-645;0.0;-0.00018750572222052677;2.1821915952024904;3.582484328745384
28;3.1;28402;-1452;-807;-645;-0.00018750572222052677;-0.00018750572222052677;2.1814415723136085;3.5817343058565023
29;3.2;-645;-323;-323;-32768;-0.00018750572222052677;-0.00018750572222052677;2.1850041810357985;3.581921811578723
30;3.3;-645;-323;-323;-645;-0.00018750572222052677;-0.00018750572222052677;2.1846291695913576;3.580609271523179
31;3.4;27595;-1452;-323;-645;-0.00018750572222052677;-0.00018750572222052677;2.1833166295358137;3.5813592944120614
32;3.5;-645;-323;-807;-445;-0.00018750572222052677;-0.00018750572222052677;2.1868792382580033;3.5830468459120457
33;3.7;-645;-323;-323;-645;-0.00018750572222052677;0.0;2.1833166295358137;3.583234351634266
34;3.8;24368;-323;-323;-645;-0.00018750572222052677;-0.00037501144444105353;2.1846291695913576;3.5800467543565175
35;3.9;-645;-807;-1452;-445;-0.00018750572222052677;-0.00018750572222052677;2.182754112369152;3.5800467543565175
36;4.0;-645;-323;-323;-645;-0.00018750572222052677;-0.00018750572222052677;2.1857542039246804;3.5804217658009585
37;4.1;1937;-323;-323;-645;-0.00018750572222052677;-0.00018750572222052677;2.1853791924802395;3.579296731467635
38;4.2;-645;-1291;-1452;-445;-0.00037501144444105353;0.0;2.182754112369152;3.5811717886898404
39;4.3;-645;-323;-323;-645;-0.00037501144444105353;0.0;2.1866917325357833;3.5851094088564714
40;4.5;-645;-323;-323;-645;-0.00018750572222052677;-0.00018750572222052677;3.586234443189795;3.5800467543565175
41;4.6;11296;-1291;-1452;-645;-0.00018750572222052677;-0.00037501144444105353;2.1883792840357676;3.582859340189825
42;4.7;-645;-323;-323;-17106;-0.00018750572222052677;-0.00018750572222052677;2.1844416638691366;3.580609271523179
43;4.8;-645;-323;-323;-645;-0.00018750572222052677;-0.00018750572222052677;2.1829416180913723;3.5811717886898404
44;4.9;28402;-1291;-807;-645;-0.00018750572222052677;0.0;2.182379100924711;3.5807967772453995
45;5.0;-645;-323;-323;-445;-0.00018750572222052677;-0.00018750572222052677;2.1825666066469314;3.5830468459120457
46;5.1;-645;-323;-323;-645;-0.00018750572222052677;-0.00037501144444105353;2.1872542497024443;3.5821093173009433
47;5.3;27272;-1452;-323;-645;-0.00018750572222052677;-0.00018750572222052677;2.1825666066469314;3.58098428296762
48;5.4;-645;-323;-968;-445;-0.00018750572222052677;-0.00018750572222052677;2.1831291238135933;3.5837968688009276
49;5.5;-645;-323;-323;-645;-0.00018750572222052677;-0.00018750572222052677;2.1833166295358137;3.580609271523179
50;5.6;24206;-323;-323;-645;-0.00037501144444105353;-0.00018750572222052677;2.184254158146916;3.582484328745384
51;5.7;-645;-484;-1452;-445;-0.00018750572222052677;0.0;2.1825666066469314;3.5826718344676043
52;5.8;-645;-323;-323;-645;-0.00018750572222052677;-0.00018750572222052677;2.1846291695913576;3.5804217658009585
53;5.9;6294;-323;-323;-645;-0.00018750572222052677;-0.00018750572222052677;2.185191686758019;3.581546800134282
54;6.1;-645;-1291;-1452;-445;-0.00018750572222052677;-0.00018750572222052677;2.1829416180913723;3.5817343058565023
55;6.2;-645;-323;-323;-645;-0.00018750572222052677;0.0;2.1850041810357985;3.579859248634297
56;6.3;-645;-323;-323;-645;-0.00018750572222052677;-0.00018750572222052677;2.184816675313578;3.581546800134282
57;6.4;28402;-1291;-1452;-645;-0.00037501144444105353;-0.00018750572222052677;2.18556669820246;3.58454689168981
58;6.5;-645;-323;-323;9360;-0.00018750572222052677;-0.00018750572222052677;2.1880042725913267;3.5864219489120153
59;6.6;-645;-323;-323;-645;-0.00018750572222052677;-0.00018750572222052677;2.185941709646901;3.5821093173009433
60;6.7;25175;-645;-323;-645;-0.00018750572222052677;-0.00018750572222052677;2.18200408948027;3.5804217658009585
61;6.9;-645;-323;-1452;-445;-0.00018750572222052677;0.0;2.1857542039246804;3.5822968230231633
62;7.0;-645;-323;-323;-645;-0.00018750572222052677;-0.00018750572222052677;2.182379100924711;3.5800467543565175
63;7.1;23399;-323;-323;-645;-0.00018750572222052677;-0.00018750572222052677;2.17844148075808;3.577046662800989
64;7.2;-484;-1291;-1452;-445;-0.00018750572222052677;-0.00018750572222052677;2.1844416638691366;3.5817343058565023
65;7.3;-645;-323;-323;-645;-0.00018750572222052677;-0.00018750572222052677;2.1836916409802547;3.579859248634297
66;7.4;-645;-323;-323;-645;-0.00018750572222052677;-0.00018750572222052677;2.1876292611468853;3.5822968230231633
67;7.5;28241;-1291;-1452;-645;-0.00018750572222052677;-0.00018750572222052677;2.1818165837580494;3.5804217658009585
68;7.7;-645;-323;-323;-6616;-0.00018750572222052677;-0.00018750572222052677;2.1829416180913723;3.5826718344676043
69;7.8;-645;-323;-323;-645;-0.00018750572222052677;0.0;2.1818165837580494;3.5772341685232094
70;7.9;28402;-1291;-645;-645;-0.00018750572222052677;-0.00018750572222052677;2.182754112369152;3.5811717886898404
71;8.0;-645;-323;-323;-445;-0.00018750572222052677;0.0;2.18556669820246;3.5826718344676043
72;8.1;-645;-323;-323;-645;-0.00018750572222052677;-0.00018750572222052677;2.18556669820246;3.58454689168981
73;8.2;26788;-1130;-323;-645;-0.00018750572222052677;-0.00018750572222052677;2.1863167210913423;3.5822968230231633
74;8.3;-645;-323;-1452;-445;-0.00018750572222052677;-0.00018750572222052677;2.182379100924711;3.580234260078738
75;8.4;-645;-323;-323;-645;-0.00018750572222052677;-0.00037501144444105353;2.1863167210913423;3.5867969603564562
76;8.6;11296;-323;-323;-645;-0.00018750572222052677;-0.00037501144444105353;3.5866094546342357;3.581546800134282
77;8.7;-645;-1291;-1452;4557;-0.00018750572222052677;-0.00018750572222052677;2.184254158146916;3.5821093173009433
78;8.8;-645;-323;-323;-645;-0.00018750572222052677;-0.00018750572222052677;2.1825666066469314;3.58098428296762
79;8.9;-645;-323;-323;-645;-0.00018750572222052677;-0.00018750572222052677;2.183879146702475;3.5807967772453995
80;9.0;26466;-1291;-1452;8848;-0.00037501144444105353;-0.00018750572222052677;2.1850041810357985;3.580609271523179
81;9.1;-645;-323;-323;-645;-0.00018750572222052677;-0.00018750572222052677;2.184254158146916;3.580609271523179
82;9.2;-645;-323;-323;-645;-0.00018750572222052677;-0.00018750572222052677;2.1833166295358137;3.580234260078738
83;9.4;28402;-1452;-645;-645;-0.00037501144444105353;-0.00018750572222052677;2.1801290322580646;3.5796717429120766
84;9.5;-645;-323;-323;-445;-0.00018750572222052677;0.0;2.1844416638691366;3.5821093173009433
85;9.6;-645;-323;-323;-645;-0.00018750572222052677;-0.00018750572222052677;2.183504135258034;3.580609271523179
86;9.7;27272;-1291;-323;-645;-0.00018750572222052677;-0.00018750572222052677;2.1857542039246804;3.5821093173009433
87;9.8;-645;-323;-1452;-445;-0.00018750572222052677;-0.00037501144444105353;2.1829416180913723;3.579296731467635
88;9.9;-645;-323;-323;-645;-0.00037501144444105353;-0.00018750572222052677;2.184254158146916;3.580609271523179
89;10.0;24206;-323;-323;-645;-0.00018750572222052677;-0.00018750572222052677;2.183879146702475;3.5813592944120614
90;10.2;-645;-968;-1452;-445;-0.00037501144444105353;-0.00018750572222052677;2.183879146702475;3.582859340189825
91;10.3;-645;-323;-323;-645;-0.00037501144444105353;-0.00018750572222052677;2.180691549424726;3.580234260078738
92;10.4;3389;-323;-323;-645;-0.00018750572222052677;-0.00018750572222052677;2.1821915952024904;3.5813592944120614
93;10.5;-645;-1291;-1452;-445;-0.00018750572222052677;-0.00018750572222052677;2.1829416180913723;3.587171971800897
94;10.6;-645;-323;-323;-645;-0.00018750572222052677;-0.00018750572222052677;2.1896918240913115;3.584359385967589
95;10.7;-645;-323;-323;-645;-0.00018750572222052677;-0.00018750572222052677;2.183879146702475;3.5811717886898404
96;10.8;28402;-1452;-968;-645;-0.00018750572222052677;-0.00018750572222052677;2.18200408948027;3.581546800134282
97;11.0;-645;-323;-323;-445;-0.00018750572222052677;-0.00018750572222052677;2.1818165837580494;3.5804217658009585
98;11.1;-645;-323;-323;-645;-0.00018750572222052677;-0.00018750572222052677;2.183879146702475;3.579859248634297
99;11.2;27595;-1452;-323;-645;-0.00018750572222052677;-0.00018750572222052677;2.182379100924711;3.580234260078738
100;11.3;-645;-323;-807;-445;-0.00018750572222052677;-0.00018750572222052677;2.183879146702475;3.5785467085787532
101;11.4;-645;-323;-323;-645;-0.00018750572222052677;0.0;2.1840666524246957;3.5811717886898404
102;11.5;24368;-323;-323;-645;-0.00018750572222052677;-0.00018750572222052677;2.182379100924711;3.5811717886898404
103;11.6;-645;-484;-1452;-445;-0.00018750572222052677;-0.00037501144444105353;2.1844416638691366;3.578921720023194
104;11.8;-645;-323;-323;-645;-0.00018750572222052677;-0.00018750572222052677;2.185191686758019;3.580609271523179
105;11.9;-807;-323;-323;-645;-0.00018750572222052677;-0.00018750572222052677;2.1863167210913423;3.5813592944120614
106;12.0;-645;-1291;-1452;-445;-0.00037501144444105353;-0.00018750572222052677;2.184816675313578;3.5791092257454147
107;12.1;-645;-323;-323;-645;-0.00018750572222052677;-0.00018750572222052677;2.1853791924802395;3.581546800134282
108;12.2;-645;-323;-323;-645;-0.00018750572222052677;-0.00018750572222052677;2.1831291238135933;3.5813592944120614
109;12.3;28402;-1291;-1452;-645;-0.00018750572222052677;-0.00018750572222052677;2.183879146702475;3.582484328745384
110;12.4;-645;-323;-323;9037;-0.00018750572222052677;-0.00018750572222052677;2.1831291238135933;3.581546800134282
111;12.5;-645;-323;-323;-645;-0.00037501144444105353;-0.00018750572222052677;2.184254158146916;3.5800467543565175
112;12.7;28402;-1291;-645;-645;-0.00018750572222052677;-0.00018750572222052677;2.188566789757988;3.586234443189795
113;12.8;-645;-323;28402;-445;2.18931681264687;-0.00037501144444105353;2.1836916409802547;3.580609271523179
114;12.9;-323;-323;-323;-645;-0.00037501144444105353;0.0;2.185941709646901;3.5796717429120766
115;13.0;4034;-323;-323;-645;-0.00018750572222052677;-0.00018750572222052677;2.18200408948027;3.5813592944120614
116;13.1;-645;-1291;-1452;-445;-0.00018750572222052677;-0.00018750572222052677;2.1836916409802547;3.5813592944120614
117;13.2;-645;-323;-323;-645;-0.00037501144444105353;-0.00037501144444105353;2.184254158146916;3.5785467085787532
118;13.3;-645;-323;-323;-645;-0.00018750572222052677;-0.00018750572222052677;2.18556669820246;3.582859340189825
119;13.5;28402;-1291;-1452;-645;-0.00018750572222052677;-0.00037501144444105353;2.1833166295358137;3.580609271523179
120;13.6;-645;-323;-323;-19621;0.0;0.0;2.1833166295358137;3.5822968230231633
121;13.7;-645;-323;-323;-645;-0.00018750572222052677;-0.00018750572222052677;2.1829416180913723;3.5804217658009585
122;13.8;28241;-1452;-323;-645;-0.00018750572222052677;-0.00018750572222052677;2.1818165837580494;3.578921720023194
123;13.9;-645;-323;-968;-445;-0.00018750572222052677;-0.00018750572222052677;2.182379100924711;3.5772341685232094
124;14.0;-645;-323;-323;-645;-0.00037501144444105353;-0.00018750572222052677;2.1821915952024904;3.578921720023194
125;14.1;9683;-323;-323;-645;-0.00018750572222052677;-0.00018750572222052677;2.1840666524246957;3.5787342143009737
126;14.3;4357;-1291;-1452;10206;-0.00037501144444105353;-0.00018750572222052677;2.1795665150914028;3.5727340311899165
127;14.4;-645;-323;-323;17885;-0.00037501144444105353;-0.00018750572222052677;2.179941526535844;3.577046662800989
128;14.5;-645;-323;-323;-17523;-0.00018750572222052677;-0.00018750572222052677;2.1818165837580494;3.5800467543565175
129;14.6;-645;-323;-323;-645;-0.00018750572222052677;-0.00018750572222052677;2.1861292153691214;3.5841718802453686
130;14.7;24852;-645;-323;-645;-0.00018750572222052677;-0.00037501144444105353;2.1878167668691058;3.579859248634297
131;14.8;-645;-484;-1452;-445;-0.00018750572222052677;0.0;2.1850041810357985;3.580234260078738
132;15.0;-645;-323;-323;-645;-0.00018750572222052677;0.0;2.1840666524246957;3.5791092257454147
133;15.1;-645;-323;-323;-645;-0.00037501144444105353;-0.00018750572222052677;2.187066743980224;3.5811717886898404
134;15.2;7101;-1291;-1452;1975;-0.00037501144444105353;-0.00018750572222052677;2.1805040437025056;3.5811717886898404
135;15.3;-645;-323;-323;-645;-0.00018750572222052677;-0.00018750572222052677;2.1836916409802547;3.580609271523179
136;15.4;-645;-323;-323;-645;0.0;-0.00018750572222052677;2.1844416638691366;3.582859340189825
137;15.5;27918;-1291;-1452;2877;-0.00018750572222052677;0.0;2.1836916409802547;3.5826718344676043
138;15.6;-645;-323;-323;-1936;-0.00018750572222052677;0.0;2.1825666066469314;3.579859248634297
139;15.8;-645;-323;-323;-645;-0.00018750572222052677;-0.00018750572222052677;2.1840666524246957;3.583984374523148
140;15.9;28402;-1452;-645;-645;-0.00018750572222052677;-0.00018750572222052677;2.1866917325357833;3.583234351634266
141;16.0;-645;-323;-323;-445;-0.00037501144444105353;-0.00018750572222052677;2.182754112369152;3.580609271523179
142;16.1;-645;-323;-323;-645;0.0;-0.00018750572222052677;2.1846291695913576;3.5817343058565023
143;16.2;26950;-1452;-323;-645;-0.00037501144444105353;-0.00037501144444105353;2.1850041810357985;3.579859248634297
144;16.3;-645;-323;-807;-445;-0.00018750572222052677;-0.00018750572222052677;2.1831291238135933;3.581546800134282
145;16.4;-645;-323;-323;-645;-0.00018750572222052677;-0.00018750572222052677;2.1844416638691366;3.5807967772453995
146;16.5;15976;-323;-323;-645;-0.00037501144444105353;-0.00018750572222052677;2.183879146702475;3.5804217658009585
147;16.7;-645;-807;-1452;-445;-0.00018750572222052677;-0.00018750572222052677;2.184816675313578;3.5841718802453686
148;16.8;-645;-323;-323;-645;-0.00018750572222052677;-0.00018750572222052677;2.187066743980224;3.584359385967589
149;16.9;-645;-323;-323;-645;-0.00018750572222052677;-0.00018750572222052677;2.1853791924802395;3.581546800134282
150;17.0;27434;-1130;-323;-645;0.0;-0.00018750572222052677;2.182754112369152;3.5794842371898556
151;17.1;-645;-323;-1452;-445;-0.00018750572222052677;0.0;2.1840666524246957;3.5817343058565023
152;17.2;-645;-323;-323;-645;-0.00018750572222052677;-0.00018750572222052677;2.1836916409802547;3.580234260078738
153;17.3;20817;-323;-323;-645;-0.00018750572222052677;-0.00018750572222052677;2.183504135258034;3.579296731467635
154;17.5;-645;-1130;-1452;-445;-0.00018750572222052677;0.0;2.1844416638691366;3.5811717886898404
155;17.6;-645;-323;-323;-645;-0.00037501144444105353;-0.00018750572222052677;2.187441755424665;3.579296731467635
156;17.7;161;-323;-323;-645;-0.00037501144444105353;-0.00037501144444105353;2.184816675313578;3.5783592028565328
157;17.8;-645;-1291;-1452;-445;-0.00037501144444105353;-0.00018750572222052677;2.183504135258034;3.5817343058565023
158;17.9;-645;-323;-323;-645;-0.00018750572222052677;-0.00018750572222052677;2.1831291238135933;3.5821093173009433
159;18.0;-645;-323;-323;-645;-0.00018750572222052677;0.0;2.183504135258034;3.5830468459120457
160;18.1;17106;-1291;-1452;16755;-0.00037501144444105353;0.0;2.1829416180913723;3.583234351634266
161;18.3;-645;-323;-323;-645;-0.00018750572222052677;0.0;2.185191686758019;3.582484328745384
162;18.4;-645;-323;-323;-645;-0.00018750572222052677;-0.00018750572222052677;2.1844416638691366;3.58098428296762
163;18.5;28402;-1291;-1452;-645;-0.00018750572222052677;-0.00018750572222052677;2.182754112369152;3.580609271523179
164;18.6;-645;-323;-323;-24462;-0.00018750572222052677;0.0;2.183504135258034;3.579296731467635
165;18.7;-645;-323;-323;-645;-0.00018750572222052677;-0.00018750572222052677;2.183504135258034;3.5817343058565023
166;18.8;28402;-1452;-323;-645;-0.00037501144444105353;-0.00018750572222052677;2.18931681264687;3.5847343974120305
167;18.9;-645;-323;-1452;-445;-0.00018750572222052677;-0.00018750572222052677;2.1821915952024904;3.5813592944120614
168;19.1;-645;-323;-323;-645;-0.00018750572222052677;-0.00018750572222052677;2.1833166295358137;3.5817343058565023
169;19.2;12910;-323;-323;-645;-0.00018750572222052677;-0.00018750572222052677;2.1829416180913723;3.582859340189825
170;19.3;-645;-968;-1452;-445;-0.00018750572222052677;-0.00018750572222052677;2.1844416638691366;3.5791092257454147
171;19.4;-645;-323;-323;-645;-0.00037501144444105353;0.0;2.182754112369152;3.5811717886898404
172;19.5;-645;-323;-323;-645;-0.00018750572222052677;-0.00018750572222052677;2.1825666066469314;3.5787342143009737
173;19.6;-645;-1291;-1452;-445;-0.00018750572222052677;-0.00018750572222052677;2.1863167210913423;3.578921720023194
174;19.7;-645;-323;-323;-645;-0.00018750572222052677;-0.00018750572222052677;2.1853791924802395;3.5796717429120766
175;19.9;-645;-323;-323;-645;-0.00018750572222052677;-0.00018750572222052677;2.183879146702475;3.5800467543565175
176;20.0;28402;-1291;-1452;-645;-0.00018750572222052677;-0.00018750572222052677;2.185941709646901;3.5826718344676043
177;20.1;-645;-323;-323;-19621;-0.00018750572222052677;0.0;2.1831291238135933;3.5796717429120766
