;Time;Thrust;Pressure1;Pressure2;Weight;Current;Voltage;Battery12V;Battery24V
0;0.0;1.4685000000000001;0.5896;-0.0121;0.292856353224204;-0.00018750572222052677;-0.00018750572222052677;9.312111683095797;20.165274770348216
1;0.009999999999990905;1.4321000000000002;0.5896;-0.0121;0.29434850844994176;-0.00018750572222052677;-0.00018750572222052677;9.311312908719138;20.163230957976012
2;0.01999999999998181;1.3957000000000002;0.5956;-0.009899999999999999;0.29434850844994176;-0.00018750572222052677;-0.00018750572222052677;9.313709231849117;20.16118714560381
3;0.04000000000007731;1.3593000000000002;0.5896;-0.009899999999999999;0.292856353224204;0.0;-0.00018750572222052677;9.31051413434248;20.17345001983703
4;0.05000000000006821;1.5049000000000001;0.5896;-0.0121;0.29434850844994176;-0.00018750572222052677;-0.00018750572222052677;9.314508006225777;20.160165239417708
5;0.07000000000005002;1.3957000000000002;0.5836;-0.0121;0.2973328189014174;-0.00037501144444105353;-0.00018750572222052677;9.311312908719138;20.169362395092623
6;0.08000000000004093;1.4685000000000001;0.5896;-0.0143;0.29434850844994176;-0.00018750572222052677;-0.00018750572222052677;9.317703103732413;20.16834048890652
7;0.09000000000003183;1.3593000000000002;0.5956;-0.009899999999999999;0.29434850844994176;-0.00018750572222052677;-0.00018750572222052677;9.313709231849117;20.16834048890652
8;0.11000000000001364;1.2865000000000002;0.5836;-0.0121;0.292856353224204;-0.00018750572222052677;-0.00018750572222052677;9.311312908719138;20.16118714560381
9;0.12000000000000455;1.3593000000000002;0.5896;-0.009899999999999999;0.2958406636756796;-0.00018750572222052677;-0.00018750572222052677;9.313709231849117;20.16629667653432
10;0.12999999999999545;1.3229000000000002;0.5896;-0.0121;0.29434850844994176;-0.00018750572222052677;-0.00018750572222052677;9.319300652485731;20.164252864162115
11;0.14999999999997726;1.3229000000000002;0.6016;-0.009899999999999999;0.292856353224204;-0.00018750572222052677;-0.00018750572222052677;9.317703103732413;20.16731858272042
12;0.15999999999996817;1.3229000000000002;0.5896;-0.0143;0.29434850844994176;-0.00018750572222052677;-0.00018750572222052677;9.317703103732413;20.16834048890652
13;0.17000000000007276;1.4685000000000001;0.5896;-0.0121;0.29434850844994176;-0.00018750572222052677;-0.00018750572222052677;9.30971535996582;20.16220905178991
14;0.19000000000005457;1.3957000000000002;0.5896;-0.0143;0.2958406636756796;-0.00037501144444105353;-0.00018750572222052677;9.314508006225777;20.1550557084872
15;0.20000000000004547;1.4321000000000002;0.5896;-0.0121;0.2958406636756796;-0.00018750572222052677;0.0;9.30971535996582;20.169362395092623
16;0.21000000000003638;1.3229000000000002;0.5896;-0.0143;0.2958406636756796;-0.00018750572222052677;-0.00018750572222052677;9.31051413434248;20.16834048890652
17;0.2300000000000182;1.3593000000000002;0.5836;-0.0121;0.29434850844994176;-0.00018750572222052677;0.0;9.308117811212501;20.157099520859404
18;0.2400000000000091;1.3957000000000002;0.5896;-0.0121;0.2973328189014174;-0.00018750572222052677;-0.00018750572222052677;9.30971535996582;20.16220905178991
19;0.2599999999999909;1.3957000000000002;0.5956;-0.009899999999999999;0.29434850844994176;-0.00018750572222052677;-0.00018750572222052677;9.318501878109071;20.160165239417708
20;0.2699999999999818;1.3593000000000002;0.5836;-0.009899999999999999;0.2958406636756796;-0.00018750572222052677;0.0;9.31051413434248;20.16629667653432
21;0.2799999999999727;1.4685000000000001;0.5776;-0.0121;0.29434850844994176;-0.00018750572222052677;0.0;9.30971535996582;20.163230957976012
22;0.3000000000000682;1.4321000000000002;0.5716;-0.0121;0.2958406636756796;-0.00018750572222052677;-0.00018750572222052677;9.301727616199225;20.171406207464827
23;0.3100000000000591;1.3229000000000002;0.5956;-0.009899999999999999;0.2958406636756796;-0.00018750572222052677;0.0;9.308117811212501;20.169362395092623
24;0.32000000000005;1.4321000000000002;0.5896;-0.0121;0.292856353224204;-0.00018750572222052677;-0.00018750572222052677;9.30971535996582;20.170384301278727
25;0.34000000000003183;1.3957000000000002;0.5896;-0.0121;0.292856353224204;-0.00018750572222052677;-0.00018750572222052677;9.311312908719138;20.158121427045504
26;0.35000000000002274;1.4685000000000001;0.5956;-0.0121;0.2958406636756796;-0.00018750572222052677;0.0;9.308916585589161;20.165274770348216
27;0.36000000000001364;1.3229000000000002;0.5956;-0.0165;0.29434850844994176;-0.00018750572222052677;-0.00018750572222052677;9.316105554979094;20.16629667653432
28;0.37999999999999545;1.4321000000000002;0.5896;-0.0121;0.29434850844994176;-0.00018750572222052677;-0.00018750572222052677;9.314508006225777;20.153011896114997
29;0.38999999999998636;1.4685000000000001;0.5836;-0.0121;0.29434850844994176;-0.00018750572222052677;-0.00018750572222052677;9.312910457472457;20.17242811365093
30;0.39999999999997726;1.2865000000000002;0.5896;-0.0143;0.2958406636756796;-0.00018750572222052677;-0.00018750572222052677;9.312111683095797;20.158121427045504
31;0.42000000000007276;1.3957000000000002;0.5896;-0.0121;0.29434850844994176;-0.00018750572222052677;-0.00018750572222052677;9.308117811212501;20.16220905178991
32;0.43000000000006366;1.3229000000000002;0.5896;-0.0121;0.2973328189014174;-0.00018750572222052677;-0.00018750572222052677;9.313709231849117;20.163230957976012
33;0.4500000000000455;1.3229000000000002;0.5836;-0.0121;0.29434850844994176;0.0;-0.00018750572222052677;9.315306780602436;20.164252864162115
34;0.4600000000000364;1.3957000000000002;0.5896;-0.0121;0.29434850844994176;0.0;0.0;9.31051413434248;20.169362395092623
35;0.4700000000000273;1.3593000000000002;0.6016;-0.009899999999999999;0.2973328189014174;-0.00018750572222052677;-0.00018750572222052677;9.313709231849117;20.171406207464827
36;0.4900000000000091;1.3593000000000002;0.5896;-0.009899999999999999;0.2958406636756796;0.0;-0.00018750572222052677;9.308117811212501;20.16731858272042
37;0.5;1.3229000000000002;0.5836;-0.0121;0.2958406636756796;-0.00037501144444105353;-0.00018750572222052677;9.312910457472457;20.170384301278727
38;0.5099999999999909;1.3957000000000002;0.5896;-0.0143;0.2958406636756796;-0.00018750572222052677;-0.00018750572222052677;9.319300652485731;20.164252864162115
39;0.5299999999999727;1.3593000000000002;0.5896;-0.0121;0.29434850844994176;-0.00018750572222052677;-0.00018750572222052677;9.317703103732413;20.163230957976012
40;0.5400000000000773;1.3229000000000002;0.5896;-0.009899999999999999;0.2973328189014174;-0.00018750572222052677;-0.00018750572222052677;9.317703103732413;20.165274770348216
41;0.5500000000000682;1.4321000000000002;0.5836;-0.009899999999999999;0.29434850844994176;0.0;-0.00018750572222052677;9.32169697561571;20.164252864162115
42;0.57000000000005;1.3593000000000002;0.5836;-0.0121;0.29434850844994176;0.0;-0.00018750572222052677;9.311312908719138;20.164252864162115
43;0.5800000000000409;1.4685000000000001;0.5896;-0.0121;0.292856353224204;-0.00018750572222052677;-0.00018750572222052677;9.311312908719138;20.17855955076754
44;0.6000000000000227;1.3229000000000002;0.5896;-0.0121;0.29434850844994176;-0.00018750572222052677;-0.00037501144444105353;9.317703103732413;20.163230957976012
45;0.6100000000000136;1.4321000000000002;0.5896;-0.0121;0.292856353224204;-0.00018750572222052677;-0.00018750572222052677;9.313709231849117;20.14994617755669
46;0.6200000000000045;1.4321000000000002;0.5836;-0.009899999999999999;0.2958406636756796;-0.00018750572222052677;0.0;9.30971535996582;20.164252864162115
47;0.6399999999999864;1.3593000000000002;0.5956;-0.0143;0.2958406636756796;-0.00018750572222052677;-0.00018750572222052677;9.312111683095797;20.16118714560381
48;0.6499999999999773;1.3229000000000002;0.5896;-0.0121;0.29434850844994176;0.0;-0.00018750572222052677;9.312910457472457;20.154033802301097
49;0.6599999999999682;1.3593000000000002;0.5896;-0.0143;0.29434850844994176;0.0;-0.00018750572222052677;9.312910457472457;20.16834048890652
50;0.6800000000000637;1.3593000000000002;0.5836;-0.009899999999999999;0.29434850844994176;-0.00018750572222052677;-0.00018750572222052677;9.308117811212501;20.16220905178991
51;0.6900000000000546;1.3593000000000002;0.5896;-0.0143;0.29434850844994176;-0.00037501144444105353;-0.00018750572222052677;9.316904329355753;20.16834048890652
52;0.7000000000000455;1.3229000000000002;0.5896;-0.0143;0.29434850844994176;0.0;-0.00037501144444105353;9.306520262459182;20.1560776146733
53;0.7200000000000273;1.4321000000000002;0.5896;-0.0121;0.2973328189014174;-0.00018750572222052677;-0.00037501144444105353;9.317703103732413;20.169362395092623
54;0.7300000000000182;1.4321000000000002;0.5836;-0.0121;0.292856353224204;-0.00018750572222052677;0.0;9.312111683095797;20.159143333231608
55;0.75;1.3957000000000002;0.5896;-0.0121;0.29434850844994176;-0.00018750572222052677;-0.00018750572222052677;9.314508006225777;20.158121427045504
56;0.7599999999999909;1.3957000000000002;0.5896;-0.0121;0.29434850844994176;-0.00018750572222052677;-0.00018750572222052677;9.316105554979094;20.16834048890652
57;0.7699999999999818;1.3957000000000002;0.5896;-0.0121;0.29434850844994176;0.0;-0.00018750572222052677;9.316904329355753;20.164252864162115
58;0.7900000000000773;1.3957000000000002;0.5776;-0.0077;0.29434850844994176;-0.00018750572222052677;-0.00018750572222052677;9.304123939329203;20.177537644581438
59;0.8000000000000682;1.3593000000000002;0.5896;-0.0121;0.29434850844994176;-0.00018750572222052677;-0.00037501144444105353;9.315306780602436;20.171406207464827
60;0.8100000000000591;1.4321000000000002;0.5836;-0.0121;0.292856353224204;0.0;-0.00018750572222052677;9.308117811212501;20.170384301278727
61;0.8300000000000409;1.3593000000000002;0.5896;-0.0121;0.2958406636756796;-0.00018750572222052677;-0.00018750572222052677;9.316904329355753;20.1550557084872
62;0.8400000000000318;1.3593000000000002;0.5896;-0.0121;0.29434850844994176;0.0;-0.00018750572222052677;9.305721488082522;20.17242811365093
63;0.8500000000000227;1.4685000000000001;0.5836;-0.0143;0.2958406636756796;0.0;-0.00018750572222052677;9.304123939329203;20.16834048890652
64;0.8700000000000045;1.3957000000000002;0.5896;-0.009899999999999999;0.29434850844994176;-0.00018750572222052677;0.0;9.311312908719138;20.16220905178991
65;0.8799999999999955;1.2865000000000002;0.5836;-0.009899999999999999;0.29434850844994176;0.0;0.0;9.314508006225777;20.165274770348216
66;0.8899999999999864;1.3229000000000002;0.5956;-0.0121;0.29434850844994176;-0.00018750572222052677;-0.00018750572222052677;9.311312908719138;20.18264717551195
67;0.9099999999999682;1.3593000000000002;0.5896;-0.0121;0.29434850844994176;-0.00018750572222052677;-0.00018750572222052677;9.305721488082522;20.16834048890652
68;0.9200000000000728;1.3593000000000002;0.5776;-0.009899999999999999;0.2958406636756796;-0.00018750572222052677;-0.00018750572222052677;9.311312908719138;20.16118714560381
69;0.9400000000000546;1.3593000000000002;0.5896;-0.0121;0.2958406636756796;0.0;-0.00018750572222052677;9.318501878109071;20.157099520859404
70;0.9500000000000455;1.3593000000000002;0.5896;-0.0143;0.2958406636756796;-0.00018750572222052677;-0.00018750572222052677;9.312111683095797;20.171406207464827
71;0.9600000000000364;1.3957000000000002;0.5836;-0.0121;0.2958406636756796;-0.00018750572222052677;-0.00018750572222052677;9.30971535996582;20.169362395092623
72;0.9800000000000182;1.5049000000000001;0.5896;-0.009899999999999999;0.292856353224204;0.0;0.0;9.312910457472457;20.160165239417708
73;0.9900000000000091;1.3229000000000002;0.5836;-0.0121;0.2958406636756796;0.0;-0.00018750572222052677;9.299331293069246;20.165274770348216
74;1.0;1.4321000000000002;0.5776;-0.009899999999999999;0.2958406636756796;0.0;-0.00018750572222052677;9.30971535996582;20.177537644581438
75;1.0199999999999818;1.2865000000000002;0.5896;-0.009899999999999999;0.29434850844994176;-0.00018750572222052677;-0.00018750572222052677;9.314508006225777;20.169362395092623
76;1.0299999999999727;1.3593000000000002;0.5956;-0.009899999999999999;0.29434850844994176;-0.00018750572222052677;-0.00037501144444105353;9.317703103732413;20.17345001983703
77;1.0500000000000682;1.4321000000000002;0.5896;-0.0143;0.2958406636756796;0.0;-0.00018750572222052677;9.318501878109071;20.16629667653432
78;1.0600000000000591;1.3957000000000002;0.5956;-0.009899999999999999;0.29434850844994176;0.0;-0.00018750572222052677;9.30971535996582;20.16220905178991
79;1.07000000000005;1.3957000000000002;0.5836;-0.0143;0.2958406636756796;-0.00018750572222052677;-0.00018750572222052677;9.314508006225777;20.16118714560381
80;1.0900000000000318;1.4321000000000002;0.5896;-0.0121;0.29434850844994176;-0.00018750572222052677;-0.00018750572222052677;9.313709231849117;20.169362395092623
81;1.1000000000000227;1.3957000000000002;0.5896;-0.0143;0.29434850844994176;-0.00018750572222052677;-0.00018750572222052677;9.314508006225777;20.17242811365093
82;1.1100000000000136;1.3229000000000002;0.5956;-0.0143;0.2958406636756796;-0.00018750572222052677;-0.00037501144444105353;9.312111683095797;20.17345001983703
83;1.1299999999999955;1.4321000000000002;0.5836;-0.0143;0.2973328189014174;-0.00018750572222052677;-0.00018750572222052677;9.308916585589161;20.164252864162115
84;1.1399999999999864;1.4685000000000001;0.5896;-0.0143;0.2958406636756796;0.0;0.0;9.318501878109071;20.16731858272042
85;1.1499999999999773;1.4685000000000001;0.5956;-0.0077;0.29882497412715525;-0.00018750572222052677;-0.00018750572222052677;9.32169697561571;20.17345001983703
86;1.1700000000000728;1.3229000000000002;0.5836;-0.0121;0.29434850844994176;-0.00018750572222052677;0.0;9.314508006225777;20.16629667653432
87;1.1800000000000637;1.3957000000000002;0.5896;-0.0121;0.29434850844994176;0.0;-0.00018750572222052677;9.307319036835842;20.16834048890652
88;1.1900000000000546;1.4685000000000001;0.5896;-0.0121;0.2973328189014174;-0.00018750572222052677;0.0;9.316105554979094;20.163230957976012
89;1.2100000000000364;1.3593000000000002;0.5896;-0.0121;0.29434850844994176;-0.00018750572222052677;0.0;9.312910457472457;20.16731858272042
90;1.2200000000000273;1.3593000000000002;0.5896;-0.0121;0.29434850844994176;-0.00037501144444105353;0.0;9.316904329355753;20.165274770348216
91;1.240000000000009;1.3957000000000002;0.5896;-0.0121;0.292856353224204;0.0;-0.00018750572222052677;9.304922713705862;20.171406207464827
92;1.25;1.4685000000000001;0.5836;-0.0121;0.29434850844994176;0.0;-0.00018750572222052677;9.308117811212501;20.164252864162115
93;1.259999999999991;1.4321000000000002;0.5956;-0.0077;0.2958406636756796;0.0;-0.00018750572222052677;9.313709231849117;20.160165239417708
94;1.2799999999999727;1.3957000000000002;0.5836;-0.0121;0.29434850844994176;-0.00018750572222052677;-0.00018750572222052677;9.31051413434248;20.17242811365093
95;1.2900000000000773;1.3593000000000002;0.5896;-0.0121;0.29434850844994176;-0.00018750572222052677;-0.00018750572222052677;9.311312908719138;20.164252864162115
96;1.3000000000000682;1.4321000000000002;0.5956;-0.0143;0.2958406636756796;-0.00037501144444105353;-0.00018750572222052677;9.316105554979094;20.160165239417708
97;1.32000000000005;1.4321000000000002;0.5896;-0.0143;0.2958406636756796;-0.00018750572222052677;-0.00018750572222052677;9.32009942686239;20.17345001983703
98;1.330000000000041;1.3957000000000002;0.5956;-0.0121;0.2973328189014174;-0.00018750572222052677;-0.00037501144444105353;9.306520262459182;20.164252864162115
99;1.3400000000000318;1.3957000000000002;0.5776;-0.009899999999999999;0.2958406636756796;-0.00018750572222052677;0.0;9.308117811212501;20.16731858272042
100;1.3600000000000136;1.3229000000000002;0.5896;-0.0121;0.2973328189014174;0.0;-0.00037501144444105353;9.315306780602436;20.169362395092623
101;1.3700000000000045;1.4685000000000001;0.5896;-0.0077;0.2958406636756796;-0.00018750572222052677;-0.00018750572222052677;9.308117811212501;20.165274770348216
102;1.3899999999999864;1.3229000000000002;0.5836;-0.0121;0.29434850844994176;-0.00018750572222052677;-0.00018750572222052677;9.317703103732413;20.163230957976012
103;1.3999999999999773;1.4685000000000001;0.5836;-0.009899999999999999;0.29434850844994176;0.0;-0.00018750572222052677;9.311312908719138;20.169362395092623
104;1.4099999999999682;1.3957000000000002;0.5836;-0.0143;0.2958406636756796;-0.00018750572222052677;-0.00018750572222052677;9.315306780602436;20.170384301278727
105;1.4300000000000637;1.3593000000000002;0.5896;-0.0121;0.2973328189014174;-0.00018750572222052677;-0.00018750572222052677;9.306520262459182;20.16629667653432
106;1.4400000000000546;1.3957000000000002;0.5836;-0.0121;0.29434850844994176;-0.00018750572222052677;0.0;9.316904329355753;20.164252864162115
107;1.4500000000000455;1.3229000000000002;0.5956;-0.0143;0.2973328189014174;-0.00018750572222052677;-0.00018750572222052677;9.304123939329203;20.16118714560381
108;1.4700000000000273;1.3957000000000002;0.5836;-0.0121;0.29434850844994176;-0.00018750572222052677;-0.00018750572222052677;9.316105554979094;20.170384301278727
109;1.4800000000000182;1.3593000000000002;0.5956;-0.0143;0.2958406636756796;0.0;-0.00018750572222052677;9.308117811212501;20.165274770348216
110;1.490000000000009;1.3593000000000002;0.5896;-0.0121;0.292856353224204;-0.00018750572222052677;-0.00018750572222052677;9.319300652485731;20.163230957976012
111;1.509999999999991;1.4321000000000002;0.5896;-0.009899999999999999;0.2973328189014174;0.0;-0.00018750572222052677;9.312910457472457;20.164252864162115
112;1.5199999999999818;1.4321000000000002;0.6016;-0.0143;0.292856353224204;0.0;-0.00018750572222052677;9.312111683095797;20.16731858272042
113;1.5299999999999727;1.3229000000000002;0.5896;-0.0121;0.2973328189014174;-0.00018750572222052677;0.0;9.315306780602436;20.16731858272042
114;1.5500000000000682;1.2865000000000002;0.5956;-0.0121;0.292856353224204;-0.00018750572222052677;-0.00018750572222052677;9.30971535996582;20.165274770348216
115;1.5600000000000591;1.5049000000000001;0.5896;-0.0121;0.2973328189014174;-0.00018750572222052677;-0.00018750572222052677;9.316105554979094;20.17242811365093
116;1.580000000000041;1.4685000000000001;0.5956;-0.009899999999999999;0.29434850844994176;-0.00018750572222052677;-0.00018750572222052677;9.314508006225777;20.160165239417708
117;1.5900000000000318;1.4321000000000002;0.6016;-0.009899999999999999;0.2973328189014174;-0.00018750572222052677;-0.00037501144444105353;9.30971535996582;20.170384301278727
118;1.6000000000000227;1.3229000000000002;0.5896;-0.0121;0.2958406636756796;0.0;-0.00018750572222052677;9.31051413434248;20.16731858272042
119;1.6200000000000045;1.3593000000000002;0.5836;-0.0121;0.29434850844994176;-0.00018750572222052677;-0.00018750572222052677;9.32009942686239;20.16731858272042
120;1.6299999999999955;1.3593000000000002;0.5956;-0.009899999999999999;0.2973328189014174;0.0;-0.00018750572222052677;9.31051413434248;20.165274770348216
121;1.6399999999999864;1.2865000000000002;0.5896;-0.0143;0.29434850844994176;-0.00018750572222052677;-0.00018750572222052677;9.311312908719138;20.170384301278727
122;1.6599999999999682;1.3593000000000002;0.5956;-0.0121;0.29434850844994176;0.0;-0.00018750572222052677;9.308117811212501;20.170384301278727
123;1.6700000000000728;1.4685000000000001;0.5956;-0.009899999999999999;0.2958406636756796;-0.00018750572222052677;-0.00018750572222052677;9.324093298745689;20.157099520859404
124;1.6800000000000637;1.3229000000000002;0.5896;-0.0121;0.29434850844994176;-0.00018750572222052677;-0.00037501144444105353;9.311312908719138;20.160165239417708
125;1.7000000000000455;1.3229000000000002;0.5896;-0.009899999999999999;0.2958406636756796;-0.00018750572222052677;-0.00018750572222052677;9.314508006225777;20.164252864162115
126;1.7100000000000364;1.4321000000000002;0.5896;-0.0143;0.2958406636756796;0.0;-0.00018750572222052677;9.305721488082522;20.16731858272042
127;1.7200000000000273;1.3593000000000002;0.5956;-0.0121;0.2958406636756796;0.0;0.0;9.313709231849117;20.169362395092623
128;1.740000000000009;1.3957000000000002;0.5896;-0.0121;0.2958406636756796;-0.00018750572222052677;-0.00018750572222052677;9.306520262459182;20.16118714560381
