;Time;Thrust;Pressure1;Pressure2;Weight;Current;Voltage;Battery12V;Battery24V
0;0.0;48;2;4;-329;-0.00018750572222052677;-0.00037501144444105353;2.2429434492019413;3.666111880855739
1;0.10000000000000142;34;1;3;-313;-0.00018750572222052677;-0.00018750572222052677;2.2435059663686028;3.6646118350779746
2;0.19999999999999574;28;0;-1;-324;0.0;-0.00018750572222052677;2.2395683462019718;3.6659243751335184
3;0.3999999999999986;40;2;-44;-329;0.0;-0.00018750572222052677;2.240880886257515;3.666111880855739
4;0.5;35;1;66;-318;0.0;0.0;2.2399433576464127;3.6687369609668266
5;0.6000000000000014;42;0;1;-322;0.0;-0.00018750572222052677;2.2406933805352947;3.6668619037446213
6;0.6999999999999957;34;0;-54;-322;-0.00018750572222052677;-0.00018750572222052677;2.243130954924162;3.6666743980224004
7;0.7999999999999972;40;2;47;-323;-0.00018750572222052677;-0.00018750572222052677;2.2427559434797204;3.666111880855739
8;0.8999999999999986;37;1;11;-321;0.0;-0.00018750572222052677;2.240505874813074;3.66648689230018
9;1.0;28;1;-11;-323;-0.00018750572222052677;0.0;2.240880886257515;3.665736869411298
10;1.1000000000000014;48;3;13;-326;-0.00018750572222052677;-0.00018750572222052677;2.2423809320352794;3.666111880855739
11;1.2999999999999972;39;2;4;-323;-0.00018750572222052677;-0.00018750572222052677;2.2406933805352947;3.6711745353556933
12;1.3999999999999986;28;0;-3;-323;0.0;-0.00018750572222052677;2.2442559892574847;3.6659243751335184
13;1.5;48;1;-6;-328;-0.00037501144444105353;-0.00018750572222052677;2.2440684835352642;3.668549455244606
14;1.6000000000000014;38;0;14;-315;-0.00037501144444105353;0.0;2.243130954924162;3.6670494094668418
15;1.6999999999999957;33;0;-10;-319;-0.00018750572222052677;-0.00018750572222052677;2.2412558977019565;3.665736869411298
16;1.7999999999999972;39;1;-49;-329;0.0;0.0;2.242193426313059;3.6687369609668266
17;1.8999999999999986;36;2;74;-317;0.0;-0.00018750572222052677;2.2436934720908233;3.6662993865779594
18;2.1000000000000014;36;0;-1;-323;-0.00018750572222052677;0.0;2.241443403424177;3.665736869411298
19;2.1999999999999957;37;1;-70;-325;0.0;-0.00018750572222052677;2.2433184606463823;3.6655493636890775
20;2.299999999999997;36;2;52;-323;-0.00037501144444105353;-0.00018750572222052677;2.242193426313059;3.6691119724112675
21;2.3999999999999986;34;1;11;-323;-0.00018750572222052677;-0.00037501144444105353;2.242193426313059;3.6668619037446213
22;2.5;29;1;-10;-322;0.00018750572222052677;-0.00037501144444105353;2.236943266090884;3.66648689230018
23;2.6000000000000014;44;1;13;-324;-0.00037501144444105353;-0.00018750572222052677;2.2423809320352794;3.66648689230018
24;2.6999999999999957;41;1;4;-316;-0.00037501144444105353;-0.00018750572222052677;2.2410683919797356;3.667986938077944
25;2.8999999999999986;-7;2;0;-322;-0.00018750572222052677;-0.00018750572222052677;2.241818414868618;3.665361857966857
26;2.999999999999993;47;1;-28;-329;0.0;0.0;2.241443403424177;3.6666743980224004
27;3.1000000000000014;38;1;32;-314;-0.00018750572222052677;-0.00018750572222052677;2.243130954924162;3.667986938077944
28;3.1999999999999957;35;1;-9;-322;-0.00018750572222052677;0.0;2.240130863368633;3.6666743980224004
29;3.3000000000000043;37;0;-57;-327;-0.00018750572222052677;0.0;2.240880886257515;3.6659243751335184
30;3.3999999999999986;37;2;65;-319;0.0;0.0;2.247256080813013;3.671737052522355
31;3.499999999999993;37;2;6;-321;-0.00018750572222052677;0.0;2.2395683462019718;3.6670494094668418
32;3.6999999999999957;30;-1;-28;-323;-0.00018750572222052677;-0.00018750572222052677;2.23900582903531;3.6670494094668418
33;3.8000000000000043;46;3;18;-326;0.0;-0.00018750572222052677;2.2412558977019565;3.6677994323557237
34;3.8999999999999986;39;1;4;-322;-0.00018750572222052677;-0.00018750572222052677;2.2410683919797356;3.6642368236335336
35;3.999999999999993;27;2;-4;-322;-0.00018750572222052677;-0.00018750572222052677;2.238255806146428;3.66648689230018
36;4.100000000000001;49;2;3;-327;0.0;-0.00018750572222052677;2.240130863368633;3.666111880855739
37;4.199999999999996;36;1;2;-317;-0.00018750572222052677;0.0;2.243130954924162;3.6662993865779594
38;4.300000000000004;29;0;1;-323;0.0;0.0;2.240505874813074;3.6659243751335184
39;4.399999999999999;43;2;-34;-329;-0.00018750572222052677;-0.00018750572222052677;2.2416309091463975;3.6668619037446213
40;4.600000000000001;35;2;49;-316;-0.00018750572222052677;-0.00018750572222052677;2.240880886257515;3.6649868465224156
41;4.699999999999996;34;0;-10;-322;0.0;-0.00018750572222052677;2.240130863368633;3.6666743980224004
42;4.800000000000004;38;0;-54;-328;0.0;0.0;2.2397558519241922;3.6668619037446213
43;4.899999999999999;36;2;67;-317;0.0;-0.00018750572222052677;2.2403183690908537;3.668924466689047
44;4.999999999999993;39;2;9;-323;0.0;-0.00018750572222052677;2.2397558519241922;3.665736869411298
45;5.100000000000001;43;1;-38;-325;0.0;-0.00018750572222052677;2.2423809320352794;3.6662993865779594
46;5.199999999999996;103;3;36;-324;-0.00018750572222052677;-0.00018750572222052677;2.240505874813074;3.6642368236335336
47;5.399999999999999;244;1;5;-321;-0.00018750572222052677;-0.00018750572222052677;2.243130954924162;3.6674244209112827
48;5.499999999999993;349;-1;-8;-323;-0.00018750572222052677;-0.00018750572222052677;2.242193426313059;3.6674244209112827
49;5.499999999999993;392;1;-2;-328;-0.00018750572222052677;0.0;2.241443403424177;3.6655493636890775
50;5.600000000000001;485;3;2;-316;0.0;0.0;2.2403183690908537;3.6670494094668418
51;5.699999999999996;579;1;-8;-323;-0.00018750572222052677;-0.00018750572222052677;2.240880886257515;3.666111880855739
52;5.800000000000004;666;2;-43;-330;-0.00018750572222052677;-0.00018750572222052677;2.240505874813074;3.6662993865779594
53;5.899999999999999;729;2;60;-317;0.0;-0.00018750572222052677;2.239380840479751;3.6666743980224004
54;6.100000000000001;762;1;0;-322;-0.00018750572222052677;-0.00018750572222052677;2.23900582903531;3.667611926633503
55;6.199999999999996;779;-1;-55;-324;-0.00018750572222052677;-0.00018750572222052677;2.2416309091463975;3.6666743980224004
56;6.300000000000004;755;3;55;-320;-0.00018750572222052677;-0.00018750572222052677;2.2435059663686028;3.6668619037446213
57;6.399999999999999;754;0;5;-323;0.0;0.0;2.2416309091463975;3.666111880855739
58;6.499999999999993;721;0;-31;-323;-0.00018750572222052677;-0.00037501144444105353;2.245006012146367;3.673237098300119
59;6.600000000000001;723;3;16;-325;-0.00018750572222052677;-0.00018750572222052677;2.2425684377575;3.6672369151890623
60;6.699999999999996;699;1;4;-321;0.0;-0.00018750572222052677;2.2388183233130894;3.6668619037446213
61;6.899999999999999;691;0;-3;-324;-0.00018750572222052677;-0.00018750572222052677;2.2403183690908537;3.665361857966857
62;6.999999999999993;726;1;-34;-330;-0.00018750572222052677;0.0;2.2438809778130437;3.665361857966857
63;7.100000000000001;733;1;46;-316;-0.00018750572222052677;0.0;2.2427559434797204;3.6674244209112827
64;7.199999999999996;748;2;-7;-323;-0.00018750572222052677;-0.00018750572222052677;2.2406933805352947;3.6672369151890623
65;7.300000000000004;776;1;-48;-327;0.0;-0.00018750572222052677;2.2416309091463975;3.666111880855739
66;7.399999999999999;786;1;55;-319;0.0;-0.00037501144444105353;2.2412558977019565;3.6659243751335184
67;7.499999999999993;793;0;6;-323;-0.00018750572222052677;-0.00018750572222052677;2.2397558519241922;3.6672369151890623
68;7.699999999999996;812;-1;-32;-323;0.0;0.0;2.241443403424177;3.668361949522385
69;7.800000000000004;874;1;32;-321;-0.00018750572222052677;-0.00018750572222052677;2.241818414868618;3.664799340800195
70;7.899999999999999;904;1;6;-321;0.0;-0.00018750572222052677;2.243130954924162;3.6677994323557237
71;7.999999999999993;889;0;-10;-324;-0.00018750572222052677;-0.00018750572222052677;2.240130863368633;3.66648689230018
72;8.100000000000001;532;2;13;-323;0.0;-0.00018750572222052677;2.240130863368633;3.6677994323557237
73;8.199999999999996;91;1;3;-324;-0.00018750572222052677;0.0;2.2406933805352947;3.664799340800195
74;8.300000000000004;21;0;-2;-323;-0.00018750572222052677;0.0;2.2423809320352794;3.664424329355754
75;8.399999999999999;45;1;-6;-329;-0.00018750572222052677;-0.00018750572222052677;2.243130954924162;3.665361857966857
76;8.600000000000001;38;1;2;-315;-0.00018750572222052677;-0.00018750572222052677;2.240880886257515;3.668361949522385
77;8.699999999999996;28;1;-4;-321;-0.00018750572222052677;-0.00037501144444105353;2.2442559892574847;3.6704245124668113
78;8.800000000000004;37;0;-60;-325;0.0;-0.00018750572222052677;2.2399433576464127;3.6655493636890775
79;8.899999999999999;35;0;63;-318;0.0;-0.00018750572222052677;2.241443403424177;3.6655493636890775
80;8.999999999999993;38;2;5;-321;-0.00018750572222052677;-0.00037501144444105353;2.238255806146428;3.664424329355754
81;9.100000000000001;30;0;-44;-324;-0.00018750572222052677;-0.00018750572222052677;2.2420059205908385;3.666111880855739
82;9.199999999999996;40;2;38;-322;-0.00018750572222052677;-0.00037501144444105353;2.240505874813074;3.6668619037446213
83;9.399999999999999;35;1;4;-321;-0.00018750572222052677;-0.00018750572222052677;2.2403183690908537;3.664424329355754
84;9.499999999999993;27;2;-6;-323;0.0;-0.00037501144444105353;2.2410683919797356;3.6666743980224004
85;9.600000000000001;48;1;9;-324;-0.00018750572222052677;-0.00018750572222052677;2.2399433576464127;3.6668619037446213
86;9.699999999999996;36;1;4;-322;-0.00018750572222052677;-0.00018750572222052677;2.2412558977019565;3.663861812189093
87;9.800000000000004;27;1;0;-324;-0.00018750572222052677;0.0;2.240505874813074;3.6674244209112827
88;9.899999999999999;47;2;-7;-327;-0.00018750572222052677;-0.00018750572222052677;2.241818414868618;3.668361949522385
89;9.999999999999993;34;3;3;-315;-0.00018750572222052677;0.0;2.240130863368633;3.666111880855739
90;10.199999999999996;33;2;-7;-324;-0.00018750572222052677;-0.00018750572222052677;2.2406933805352947;3.6646118350779746
91;10.300000000000004;40;1;-46;-331;0.0;0.0;2.240880886257515;3.6659243751335184
92;10.399999999999999;36;2;66;-318;0.0;0.0;2.241443403424177;3.665736869411298
93;10.499999999999993;36;1;1;-322;0.0;-0.00018750572222052677;2.2391933347575304;3.6649868465224156
94;10.600000000000001;35;1;-62;-325;-0.00018750572222052677;-0.00037501144444105353;2.2399433576464127;3.667611926633503
95;10.699999999999996;38;2;62;-322;0.0;0.0;2.240505874813074;3.6646118350779746
96;10.800000000000004;37;1;8;-321;0.0;-0.00018750572222052677;2.2463185522019105;3.6711745353556933
97;10.899999999999999;31;0;-9;-324;0.0;-0.00018750572222052677;2.2403183690908537;3.6662993865779594
98;11.100000000000001;48;2;13;-325;0.0;0.0;2.2410683919797356;3.6666743980224004
99;11.199999999999996;36;3;3;-319;-0.00018750572222052677;-0.00018750572222052677;2.2429434492019413;3.666111880855739
100;11.300000000000004;25;1;-2;-323;-0.00018750572222052677;-0.00018750572222052677;2.240505874813074;3.665361857966857
101;11.399999999999999;46;2;-22;-331;0.0;-0.00018750572222052677;2.2420059205908385;3.665736869411298
102;11.499999999999993;38;0;18;-314;-0.00018750572222052677;-0.00018750572222052677;2.2427559434797204;3.6659243751335184
103;11.600000000000001;34;2;-8;-323;-0.00018750572222052677;-0.00018750572222052677;2.23900582903531;3.66648689230018
104;11.699999999999996;42;1;-43;-330;-0.00018750572222052677;-0.00018750572222052677;2.2352557145908993;3.663861812189093
105;11.899999999999999;44;3;-25;-330;-0.00018750572222052677;-0.00018750572222052677;2.2416309091463975;3.6672369151890623
106;11.999999999999993;39;2;28;-317;0.0;-0.00018750572222052677;2.242193426313059;3.666111880855739
107;12.100000000000001;-3;1;-7;-321;0.0;-0.00018750572222052677;2.2412558977019565;3.6668619037446213
108;12.199999999999996;38;1;-59;-327;-0.00018750572222052677;-0.00018750572222052677;2.2416309091463975;3.6655493636890775
109;12.300000000000004;36;1;62;-320;-0.00018750572222052677;-0.00018750572222052677;2.2416309091463975;3.6662993865779594
110;12.399999999999999;36;1;4;-321;0.0;0.0;2.2391933347575304;3.66648689230018
111;12.499999999999993;32;0;-49;-322;-0.00018750572222052677;-0.00018750572222052677;2.2416309091463975;3.6681744438001647
112;12.699999999999996;37;2;47;-321;-0.00018750572222052677;-0.00018750572222052677;2.242193426313059;3.66648689230018
113;12.800000000000004;32;1;8;-323;0.0;0.0;2.240880886257515;3.665736869411298
114;12.899999999999999;29;0;-11;-320;0.0;-0.00018750572222052677;2.2395683462019718;3.665174352244636
115;12.999999999999993;49;2;12;-324;3.67004950102237;-0.00018750572222052677;2.2412558977019565;3.6662993865779594
116;13.100000000000001;35;2;3;-318;-0.00018750572222052677;-0.00037501144444105353;2.2410683919797356;3.6655493636890775
117;13.199999999999996;25;1;-1;-323;-0.00018750572222052677;-0.00018750572222052677;2.237318277535325;3.665361857966857
118;13.300000000000004;48;2;-13;-328;0.0;-0.00018750572222052677;2.2406933805352947;3.6666743980224004
119;13.499999999999993;39;1;8;-315;-0.00018750572222052677;-0.00018750572222052677;2.241818414868618;3.6649868465224156
120;13.600000000000001;35;1;-8;-322;-0.00018750572222052677;-0.00018750572222052677;2.2403183690908537;3.66648689230018
121;13.699999999999996;39;1;-51;-327;0.0;-0.00018750572222052677;2.2399433576464127;3.665361857966857
122;13.800000000000004;35;2;66;-317;0.0;-0.00018750572222052677;2.240130863368633;3.6668619037446213
123;13.899999999999999;38;0;1;-322;-0.00018750572222052677;0.0;2.239380840479751;3.6636743064668726
124;13.999999999999993;34;1;-60;-321;-0.00018750572222052677;-0.00018750572222052677;2.240505874813074;3.665736869411298
125;14.100000000000001;34;2;50;-323;-0.00018750572222052677;-0.00018750572222052677;2.2410683919797356;3.6662993865779594
126;14.300000000000004;35;1;12;-321;-0.00018750572222052677;-0.00018750572222052677;2.2395683462019718;3.6670494094668418
127;14.399999999999999;31;0;-9;-323;-0.00018750572222052677;0.0;2.2397558519241922;3.665361857966857
128;14.499999999999993;48;2;14;-324;0.0;0.0;2.2416309091463975;3.6666743980224004
129;14.600000000000001;36;0;3;-320;0.0;0.0;2.2423809320352794;3.665174352244636
130;14.699999999999996;25;1;-2;-323;-0.00018750572222052677;-0.00018750572222052677;2.241818414868618;3.6649868465224156
131;14.800000000000004;48;0;-11;-329;-0.00018750572222052677;-0.00018750572222052677;2.240880886257515;3.6674244209112827
132;14.899999999999999;38;2;5;-316;0.0;-0.00018750572222052677;2.2420059205908385;3.6631117893002108
133;14.999999999999993;31;2;-9;-322;-0.00018750572222052677;-0.00018750572222052677;2.2397558519241922;3.6674244209112827
134;15.199999999999996;38;0;-53;-328;-0.00018750572222052677;-0.00018750572222052677;2.2395683462019718;3.668361949522385
135;15.300000000000004;38;1;64;-321;-0.00018750572222052677;-0.00018750572222052677;2.243130954924162;3.6670494094668418
136;15.399999999999999;36;1;8;-322;0.0;-0.00018750572222052677;2.2403183690908537;3.668549455244606
137;15.499999999999993;32;0;-41;-334;-0.00018750572222052677;-0.00018750572222052677;2.240880886257515;3.665736869411298
138;15.600000000000001;45;2;20;-321;-0.00018750572222052677;-0.00018750572222052677;2.242193426313059;3.666111880855739
139;15.699999999999996;35;0;5;-322;-0.00018750572222052677;-0.00018750572222052677;2.2410683919797356;3.6662993865779594
140;15.800000000000004;28;0;-4;-322;0.0;-0.00037501144444105353;2.240505874813074;3.665736869411298
141;15.999999999999993;49;2;6;-327;-0.00018750572222052677;0.0;2.238255806146428;3.6659243751335184
142;16.1;37;2;2;-315;0.0;-0.00037501144444105353;2.2412558977019565;3.665361857966857
143;16.199999999999996;27;0;1;-324;0.0;-0.00018750572222052677;2.2420059205908385;3.665174352244636
144;16.300000000000004;46;2;-29;-329;0.0;0.0;2.241443403424177;3.6666743980224004
145;16.4;38;1;36;-316;-0.00018750572222052677;-0.00018750572222052677;2.2378807947019865;3.666111880855739
146;16.499999999999993;37;1;-9;-322;-0.00018750572222052677;-0.00018750572222052677;2.2420059205908385;3.665736869411298
147;16.6;39;0;-50;-331;0.0;0.0;2.2425684377575;3.6659243751335184
148;16.800000000000004;37;0;66;-320;-0.00018750572222052677;-0.00037501144444105353;2.2410683919797356;3.666111880855739
149;16.9;40;1;13;-316;0.0;0.0;2.2420059205908385;3.6674244209112827
150;16.999999999999993;31;1;-8;-322;0.0;-0.00018750572222052677;2.241818414868618;3.665736869411298
151;17.1;41;1;-47;-329;-0.00018750572222052677;-0.00018750572222052677;2.2433184606463823;3.6659243751335184
152;17.199999999999996;38;2;66;-317;-0.00018750572222052677;0.0;2.242193426313059;3.666111880855739
153;17.300000000000004;37;0;2;-321;-0.00018750572222052677;-0.00037501144444105353;2.2416309091463975;3.665361857966857
154;17.4;36;1;-65;-321;-0.00018750572222052677;-0.00018750572222052677;2.2416309091463975;3.665736869411298
155;17.6;40;1;49;-322;-0.00018750572222052677;-0.00018750572222052677;2.240505874813074;3.665361857966857
156;17.699999999999996;22;2;11;-322;-0.00018750572222052677;0.0;2.240505874813074;3.665736869411298
157;17.800000000000004;30;-1;-10;-322;-0.00018750572222052677;-0.00018750572222052677;2.2438809778130437;3.667611926633503
158;17.9;45;1;18;-326;-0.00018750572222052677;0.0;2.2435059663686028;3.663861812189093
159;17.999999999999993;36;0;5;-321;0.0;-0.00018750572222052677;2.2406933805352947;3.666111880855739
160;18.1;26;0;-3;-323;-0.00037501144444105353;-0.00018750572222052677;2.2395683462019718;3.6666743980224004
161;18.199999999999996;49;1;4;-328;-0.00018750572222052677;-0.00018750572222052677;2.240505874813074;3.6726745811334576
162;18.4;42;1;3;-313;-0.00018750572222052677;-0.00018750572222052677;2.2410683919797356;3.6659243751335184
163;18.499999999999993;32;0;-2;-322;-0.00018750572222052677;0.0;2.240505874813074;3.666111880855739
164;18.6;39;1;-34;-329;-0.00018750572222052677;-0.00018750572222052677;2.2391933347575304;3.66648689230018
165;18.699999999999996;38;2;33;-316;-0.00018750572222052677;0.0;2.241818414868618;3.6662993865779594
166;18.800000000000004;34;1;-10;-324;-0.00018750572222052677;-0.00018750572222052677;2.2388183233130894;3.666111880855739
167;18.9;38;2;-59;-325;-0.00018750572222052677;-0.00018750572222052677;2.2420059205908385;3.665736869411298
168;18.999999999999993;37;2;65;-318;-0.00018750572222052677;-0.00037501144444105353;2.2423809320352794;3.6655493636890775
169;19.1;36;1;0;-322;-0.00018750572222052677;0.0;2.2397558519241922;3.6636743064668726
170;19.300000000000004;39;0;-65;-322;-0.00018750572222052677;-0.00018750572222052677;2.23900582903531;3.6666743980224004
171;19.4;40;3;55;-321;-0.00018750572222052677;-0.00018750572222052677;2.242193426313059;3.6659243751335184
172;19.499999999999993;35;1;9;-322;-0.00018750572222052677;-0.00018750572222052677;2.2384433118686484;3.6668619037446213
173;19.6;29;0;-9;-323;-0.00018750572222052677;-0.00018750572222052677;2.241443403424177;3.665736869411298
174;19.699999999999996;47;1;14;-325;-0.00018750572222052677;-0.00018750572222052677;2.2425684377575;3.6642368236335336
175;19.800000000000004;35;1;4;-323;-0.00018750572222052677;-0.00018750572222052677;2.2423809320352794;3.6655493636890775
176;19.9;25;0;-2;-322;-0.00018750572222052677;0.0;2.2410683919797356;3.664799340800195
177;20.1;45;2;1;-327;-0.00018750572222052677;-0.00037501144444105353;2.2420059205908385;3.6659243751335184
178;20.199999999999996;39;-1;2;-315;-0.00018750572222052677;0.0;2.2420059205908385;3.6649868465224156
179;20.300000000000004;28;0;1;-322;-0.00018750572222052677;-0.00018750572222052677;2.241818414868618;3.665174352244636
180;20.4;45;2;-25;-330;0.0;-0.00018750572222052677;2.23900582903531;3.667986938077944
181;20.499999999999993;38;1;33;-316;-0.00018750572222052677;0.0;2.241443403424177;3.6659243751335184
182;20.6;36;0;-9;-322;-0.00018750572222052677;-0.00037501144444105353;2.2425684377575;3.665361857966857
183;20.699999999999996;38;2;-54;-328;0.0;0.0;2.241818414868618;3.6674244209112827
184;20.9;36;1;67;-317;-0.00037501144444105353;-0.00037501144444105353;2.239380840479751;3.6666743980224004
185;20.999999999999993;36;1;2;-321;-0.00018750572222052677;-0.00018750572222052677;2.2406933805352947;3.6668619037446213
