;Time;Thrust;Pressure1;Pressure2;Weight;Current;Voltage;Battery12V;Battery24V
0;0.0;-323;-1291;-1452;-445;-0.00018750572222052677;-0.00018750572222052677;2.1131894894253365;3.6312358165227208
1;0.019000000000001904;-323;-1291;-1452;-445;-0.00018750572222052677;-0.00018750572222052677;2.1131894894253365;3.6310483108005003
2;0.038000000000000256;-323;-1291;-1452;-445;-0.00018750572222052677;-0.00018750572222052677;2.1156270638142036;3.634048402356029
3;0.05700000000000216;-323;-1291;-1452;-445;-0.00037501144444105353;-0.00018750572222052677;2.1182521439252904;3.6325483565782646
4;0.07500000000000284;-323;-1291;-1452;-445;-0.00018750572222052677;-0.00037501144444105353;2.1184396496475113;3.631610827967162
5;0.0940000000000012;-323;-1291;-1452;-445;-0.00018750572222052677;-0.00018750572222052677;2.117314615314188;3.631985839411603
6;0.11200000000000188;-323;-1291;-1452;-445;-0.00037501144444105353;0.0;2.1165645924253056;3.6331108737449265
7;0.13100000000000023;-323;-1291;-1452;-445;-0.00018750572222052677;-0.00018750572222052677;2.1131894894253365;3.629548265022736
8;0.1490000000000009;-323;-1291;-1452;-445;-0.00018750572222052677;-0.00037501144444105353;2.1156270638142036;3.632923368022706
9;0.1680000000000028;-323;-1291;-1452;-445;0.0;0.0;2.116939603869747;3.632735862300485
10;0.18700000000000117;-323;-1291;-1452;-445;-0.00018750572222052677;-0.00018750572222052677;2.1171271095919675;3.6325483565782646
11;0.20500000000000185;-323;-1291;-1452;-445;-0.00018750572222052677;-0.00018750572222052677;2.1165645924253056;3.632360850856044
12;0.2240000000000002;-323;-1291;-1452;-445;-0.00018750572222052677;-0.00018750572222052677;2.11431452375866;3.6310483108005003
13;0.24200000000000088;-323;-1291;-1452;-445;-0.00018750572222052677;-0.00018750572222052677;2.116189580980865;3.6331108737449265
14;0.2610000000000028;-323;-1291;-1452;-445;-0.00018750572222052677;-0.00018750572222052677;2.1131894894253365;3.6302982879116183
15;0.28000000000000114;-323;-1291;-1452;-445;-0.00018750572222052677;-0.00018750572222052677;2.1145020294808803;3.6312358165227208
16;0.2980000000000018;-323;-1291;-1452;-445;-0.00018750572222052677;-0.00018750572222052677;2.1160020752586446;3.632360850856044
17;0.31700000000000017;-323;-1291;-1452;-445;-0.00018750572222052677;-0.00018750572222052677;2.1165645924253056;3.632360850856044
18;0.3360000000000021;-323;-1291;-1452;-445;-0.00018750572222052677;-0.00018750572222052677;2.1137520065919984;3.6317983336893827
19;0.35400000000000276;-323;-1291;-1452;-445;-0.00037501144444105353;-0.00018750572222052677;2.1156270638142036;3.6321733451338236
20;0.3730000000000011;-323;-1291;-1452;-445;-0.00018750572222052677;-0.00018750572222052677;2.1152520523697627;3.6325483565782646
21;0.3910000000000018;-323;-1291;-1452;-445;0.0;0.0;2.1156270638142036;3.63086080507828
22;0.41100000000000136;-323;-1291;-1452;-445;-0.00018750572222052677;0.00018750572222052677;2.1148770409253212;3.6331108737449265
23;0.42900000000000205;-323;-1291;-1452;-445;-0.00018750572222052677;-0.00018750572222052677;2.116939603869747;3.6314233222449417
24;0.4480000000000004;-323;-1291;-1452;-445;0.0;-0.00018750572222052677;2.1148770409253212;3.6342359080782494
25;0.4670000000000023;-323;-1291;-1452;-445;-0.00037501144444105353;-0.00018750572222052677;2.1163770867030856;3.631985839411603
26;0.48499999999999943;-323;-1291;-1452;-445;-0.00018750572222052677;0.0;2.113376995147557;3.628985747856075
27;0.5040000000000013;-323;-1291;-1452;-445;0.0;-0.00018750572222052677;2.115439558091983;3.6314233222449417
28;0.522000000000002;-323;-1291;-1452;-445;0.0;-0.00018750572222052677;2.113001983703116;3.632735862300485
29;0.5410000000000004;-323;-1291;-1452;-445;0.0;-0.00018750572222052677;2.1124394665364545;3.638548539689322
30;0.5609999999999999;-323;-1291;-1452;-445;-0.00018750572222052677;-0.00018750572222052677;2.1105644093142493;3.628048219244972
31;0.5820000000000007;-323;-1291;-1452;-445;-0.00018750572222052677;-0.00018750572222052677;2.113001983703116;3.630485793633839
32;0.6020000000000003;-323;-1291;-1452;-445;-0.00018750572222052677;-0.00018750572222052677;2.1100018921475874;3.63086080507828
33;0.6219999999999999;-323;-1291;-1452;-445;0.0;-0.00018750572222052677;2.115439558091983;3.6274857020783107
34;0.6430000000000007;-323;-1291;-1452;-445;-0.00018750572222052677;-0.00018750572222052677;2.1150645466475417;3.633298379467147
35;0.6620000000000026;-323;-1291;-1452;-445;-0.00018750572222052677;-0.00018750572222052677;2.1175021210364084;3.6342359080782494
36;0.6810000000000009;-323;-1291;-1452;-445;-0.00018750572222052677;0.0;2.1152520523697627;3.6287982421338545
37;0.6990000000000016;-323;-1291;-1452;-445;-0.00018750572222052677;-0.00018750572222052677;2.1131894894253365;3.632735862300485
38;0.7190000000000012;-323;-1291;-1452;-445;-0.00018750572222052677;-0.00018750572222052677;2.1171271095919675;3.632735862300485
39;0.7379999999999995;-323;-1291;-1452;-445;-0.00018750572222052677;-0.00018750572222052677;2.1193771782586137;3.6306732993560593
40;0.7560000000000002;-323;-1291;-1452;-445;-0.00018750572222052677;-0.00018750572222052677;2.1184396496475113;3.632360850856044
41;0.7750000000000021;-323;-1291;-1452;-445;-0.00018750572222052677;-0.00018750572222052677;2.1167520981475265;3.632360850856044
42;0.7930000000000028;-323;-1291;-1452;-445;-0.00018750572222052677;-0.00018750572222052677;2.113564500869778;3.632360850856044
43;0.8120000000000012;-323;-1291;-1452;-445;-0.00037501144444105353;-0.00018750572222052677;2.115439558091983;3.631610827967162
44;0.8309999999999995;-323;-1291;-1452;-445;-0.00018750572222052677;0.0;2.117689626758629;3.6349859309671317
45;0.8500000000000014;-323;-1291;-1452;-445;-0.00018750572222052677;-0.00018750572222052677;2.1148770409253212;3.6317983336893827
46;0.8680000000000021;-323;-1291;-1452;-445;-0.00018750572222052677;0.0;2.115439558091983;3.632923368022706
47;0.8870000000000005;-323;-1291;-1452;-445;-0.00037501144444105353;-0.00018750572222052677;2.1160020752586446;3.632735862300485
48;0.9050000000000011;-323;-1291;-1452;-445;-0.00018750572222052677;-0.00018750572222052677;2.1165645924253056;3.632923368022706
49;0.9239999999999995;-323;-1291;-1452;-445;-0.00018750572222052677;-0.00018750572222052677;2.115814569536424;3.6321733451338236
50;0.9420000000000002;-323;-1291;-1452;-445;-0.00018750572222052677;-0.00018750572222052677;2.1141270180364393;3.6338608966338084
51;0.9610000000000021;-323;-1291;-1452;-445;-0.00018750572222052677;0.0;2.1137520065919984;3.629548265022736
52;0.9800000000000004;-323;-1291;-1452;-445;-0.00018750572222052677;0.0;2.1152520523697627;3.6317983336893827
53;0.9980000000000011;-323;-1291;-1452;-445;-0.00018750572222052677;0.0;2.116939603869747;3.632735862300485
54;1.0169999999999995;-323;-1291;-1452;-445;-0.00018750572222052677;-0.00018750572222052677;2.1148770409253212;3.632923368022706
55;1.0360000000000014;-323;-1291;-1452;-445;-0.00018750572222052677;-0.00018750572222052677;2.118627155369732;3.632923368022706
56;1.054000000000002;-323;-1291;-1452;-445;-0.00037501144444105353;-0.00018750572222052677;2.1182521439252904;3.6325483565782646
57;1.0730000000000004;-323;-1291;-1452;-445;-0.00037501144444105353;-0.00018750572222052677;2.1146895352031008;3.6312358165227208
58;1.0920000000000023;-323;-1291;-1452;-445;0.0;-0.00018750572222052677;2.1152520523697627;3.631610827967162
59;1.1099999999999994;-323;-1291;-1452;-445;-0.00018750572222052677;-0.00018750572222052677;2.1145020294808803;3.6317983336893827
60;1.1290000000000013;-323;-1291;-1452;-445;0.0;-0.00018750572222052677;2.1178771324808494;3.632923368022706
61;1.1479999999999997;-323;-1291;-1452;-445;0.0;-0.00018750572222052677;2.1182521439252904;3.632360850856044
62;1.1660000000000004;-323;-1291;-1452;-445;-0.00018750572222052677;0.0;2.1150645466475417;3.634048402356029
63;1.1850000000000023;-323;-1291;-1452;-445;-0.00018750572222052677;-0.00018750572222052677;2.1148770409253212;3.6317983336893827
64;1.2029999999999994;-323;-1291;-1452;-445;0.0;-0.00018750572222052677;2.1146895352031008;3.629548265022736
65;1.2220000000000013;-323;-1291;-1452;-445;-0.00037501144444105353;-0.00018750572222052677;2.113939512314219;3.6317983336893827
66;1.240000000000002;-323;-1291;-1452;-445;0.0;0.0;2.1156270638142036;3.6310483108005003
67;1.2590000000000003;-323;-1291;-1452;-445;-0.00018750572222052677;-0.00018750572222052677;2.113939512314219;3.632735862300485
68;1.277000000000001;-323;-1291;-1452;-445;-0.00018750572222052677;0.0;2.1141270180364393;3.6293607593005155
69;1.2959999999999994;-323;-1291;-1452;-445;-0.00018750572222052677;-0.00018750572222052677;2.1165645924253056;3.634048402356029
70;1.314;-323;-1291;-1452;-445;0.0;-0.00018750572222052677;2.1165645924253056;3.632360850856044
71;1.333000000000002;-323;-1291;-1452;-445;-0.00018750572222052677;-0.00018750572222052677;2.115814569536424;3.6317983336893827
72;1.3510000000000026;-323;-1291;-1452;-445;-0.00018750572222052677;0.0;2.115439558091983;3.6325483565782646
73;1.370000000000001;-323;-1291;-1452;-445;-0.00018750572222052677;-0.00018750572222052677;2.1083143406476026;3.6306732993560593
74;1.389000000000003;-323;-1291;-1452;-445;0.0;-0.00018750572222052677;2.1146895352031008;3.6325483565782646
75;1.4080000000000013;-323;-1291;-1452;-445;-0.00018750572222052677;-0.00018750572222052677;2.1160020752586446;3.6331108737449265
76;1.426000000000002;-323;-1291;-1452;-445;-0.00037501144444105353;-0.00018750572222052677;2.1167520981475265;3.6331108737449265
77;1.4450000000000003;-323;-1291;-1452;-445;-0.00018750572222052677;-0.00018750572222052677;2.116189580980865;3.632923368022706
78;1.463000000000001;-323;-1291;-1452;-445;-0.00018750572222052677;-0.00018750572222052677;2.1167520981475265;3.6331108737449265
79;1.4820000000000029;-323;-1291;-1452;-445;-0.00018750572222052677;-0.00018750572222052677;2.1150645466475417;3.6321733451338236
80;1.5;-323;-1291;-1452;-445;-0.00018750572222052677;0.0;2.1137520065919984;3.6317983336893827
81;1.519000000000002;-323;-1291;-1452;-445;-0.00018750572222052677;-0.00018750572222052677;2.1145020294808803;3.633673390911588
82;1.5380000000000003;-323;-1291;-1452;-445;0.0;-0.00018750572222052677;2.1191896725363932;3.6325483565782646
83;1.5570000000000022;-323;-1291;-1452;-445;-0.00018750572222052677;-0.00018750572222052677;2.1175021210364084;3.632735862300485
84;1.5750000000000028;-323;-1291;-1452;-445;-0.00018750572222052677;0.0;2.1145020294808803;3.6325483565782646
85;1.5940000000000012;-323;-1291;-1452;-445;0.0;-0.00018750572222052677;2.112626972258675;3.6334858851893674
86;1.6120000000000019;-323;-1291;-1452;-445;-0.00018750572222052677;-0.00018750572222052677;2.1152520523697627;3.6331108737449265
87;1.6310000000000002;-323;-1291;-1452;-445;-0.00018750572222052677;0.0;2.1156270638142036;3.631610827967162
88;1.649000000000001;-323;-1291;-1452;-445;-0.00037501144444105353;0.0;2.113376995147557;3.6287982421338545
89;1.6680000000000028;-323;-1291;-1452;-445;-0.00018750572222052677;-0.00018750572222052677;2.1145020294808803;3.6312358165227208
90;1.6870000000000012;-323;-1291;-1452;-445;-0.00018750572222052677;0.0;2.1156270638142036;3.633673390911588
91;1.7050000000000018;-323;-1291;-1452;-445;-0.00037501144444105353;-0.00037501144444105353;2.1182521439252904;3.632923368022706
92;1.7240000000000002;-323;-1291;-1452;-445;-0.00018750572222052677;-0.00018750572222052677;2.1171271095919675;3.6310483108005003
93;1.7420000000000009;-323;-1291;-1452;-445;-0.00018750572222052677;-0.00018750572222052677;2.115439558091983;3.632360850856044
94;1.7610000000000028;-323;-1291;-1452;-445;-0.00018750572222052677;-0.00037501144444105353;2.1150645466475417;3.629735770744957
95;1.7800000000000011;-323;-1291;-1452;-445;-0.00018750572222052677;-0.00037501144444105353;2.1120644550920136;3.6321733451338236
96;1.7989999999999995;-323;-1291;-1452;-445;-0.00018750572222052677;-0.00018750572222052677;2.1163770867030856;3.6299232764671774
97;1.8170000000000002;-323;-1291;-1452;-445;-0.00037501144444105353;-0.00018750572222052677;2.1160020752586446;3.6325483565782646
98;1.836000000000002;-323;-1291;-1452;-445;-0.00037501144444105353;-0.00018750572222052677;2.116939603869747;3.633673390911588
99;1.8540000000000028;-323;-1291;-1452;-445;-0.00018750572222052677;0.0;2.1156270638142036;3.6302982879116183
100;1.873000000000001;-323;-1291;-1452;-445;-0.00018750572222052677;-0.00018750572222052677;2.115439558091983;3.6314233222449417
101;1.8910000000000018;-323;-1291;-1452;-445;-0.00018750572222052677;-0.00037501144444105353;2.1160020752586446;3.632923368022706
102;1.9100000000000001;-323;-1291;-1452;-445;-0.00018750572222052677;-0.00018750572222052677;2.11431452375866;3.6314233222449417
103;1.929000000000002;-323;-1291;-1452;-445;0.0;-0.00018750572222052677;2.116189580980865;3.6302982879116183
104;1.9470000000000027;-323;-1291;-1452;-445;-0.00018750572222052677;-0.00018750572222052677;2.1165645924253056;3.631985839411603
105;1.966000000000001;-323;-1291;-1452;-445;-0.00018750572222052677;-0.00018750572222052677;2.1160020752586446;3.633673390911588
106;1.9840000000000018;-323;-1291;-1452;-445;0.0;-0.00018750572222052677;2.1152520523697627;3.6331108737449265
107;2.003;-323;-1291;-1452;-445;-0.00018750572222052677;0.0;2.1150645466475417;3.6312358165227208
108;2.021000000000001;-323;-1291;-1452;-445;0.0;0.0;2.1141270180364393;3.6269231849116492
109;2.0400000000000027;-323;-1291;-1452;-445;-0.00018750572222052677;-0.00018750572222052677;2.115439558091983;3.6306732993560593
110;2.059000000000001;-323;-1291;-1452;-445;-0.00018750572222052677;-0.00018750572222052677;2.1167520981475265;3.6310483108005003
111;2.0770000000000017;-323;-1291;-1452;-445;-0.00018750572222052677;-0.00037501144444105353;2.1160020752586446;3.632360850856044
112;2.096;-323;-1291;-1452;-445;-0.00018750572222052677;-0.00018750572222052677;2.115814569536424;3.6321733451338236
113;2.1140000000000008;-323;-1291;-1452;-445;-0.00018750572222052677;-0.00018750572222052677;2.1163770867030856;3.633298379467147
114;2.1330000000000027;-323;-1291;-1452;-445;0.0;-0.00018750572222052677;2.1182521439252904;3.632735862300485
115;2.151;-323;-1291;-1452;-445;-0.00018750572222052677;-0.00018750572222052677;2.116189580980865;3.631610827967162
116;2.1700000000000017;-323;-1291;-1452;-445;-0.00018750572222052677;0.0;2.1146895352031008;3.631610827967162
117;2.1880000000000024;-323;-1291;-1452;-445;-0.00018750572222052677;-0.00037501144444105353;2.11431452375866;3.6317983336893827
118;2.2070000000000007;-323;-1291;-1452;-445;-0.00018750572222052677;-0.00037501144444105353;2.1145020294808803;3.633298379467147
119;2.2250000000000014;-323;-1291;-1452;-445;-0.00018750572222052677;-0.00018750572222052677;2.1146895352031008;3.632735862300485
120;2.2439999999999998;-323;-1291;-1452;-445;-0.00018750572222052677;-0.00018750572222052677;2.116189580980865;3.6331108737449265
121;2.2620000000000005;-323;-1291;-1452;-445;-0.00018750572222052677;0.0;2.117314615314188;3.632923368022706
122;2.2810000000000024;-323;-1291;-1452;-445;-0.00018750572222052677;0.0;2.1156270638142036;3.6302982879116183
123;2.3000000000000007;-323;-1291;-1452;-445;-0.00018750572222052677;-0.00018750572222052677;2.113001983703116;3.6312358165227208
124;2.3190000000000026;-323;-1291;-1452;-445;-0.00018750572222052677;-0.00018750572222052677;2.11431452375866;3.6334858851893674
125;2.3369999999999997;-323;-1291;-1452;-445;-0.00018750572222052677;0.0;2.1152520523697627;3.633673390911588
126;2.3560000000000016;-323;-1291;-1452;-445;-0.00018750572222052677;-0.00018750572222052677;2.116939603869747;3.6325483565782646
127;2.3740000000000023;-323;-1291;-1452;-445;-0.00037501144444105353;0.0;2.1163770867030856;3.631610827967162
128;2.3930000000000007;-323;-1291;-1452;-445;-0.00018750572222052677;-0.00018750572222052677;2.1152520523697627;3.6312358165227208
129;2.4120000000000026;-323;-1291;-1452;-445;0.0;-0.00018750572222052677;2.113376995147557;3.631985839411603
130;2.431000000000001;-323;-1291;-1452;-445;-0.00018750572222052677;-0.00018750572222052677;2.1156270638142036;3.6302982879116183
131;2.4490000000000016;-323;-1291;-1452;-445;-0.00037501144444105353;-0.00037501144444105353;2.1145020294808803;3.6334858851893674
132;2.468;-323;-1291;-1452;-445;-0.0005625171666615803;0.0;2.116939603869747;3.632923368022706
133;2.4860000000000007;-323;-1291;-1452;-445;-0.00018750572222052677;-0.00018750572222052677;2.117314615314188;3.6321733451338236
134;2.5050000000000026;-323;-1291;-1452;-445;-0.00018750572222052677;-0.00018750572222052677;2.117689626758629;3.6325483565782646
135;2.524000000000001;-323;-1291;-1452;-445;-0.00018750572222052677;-0.00018750572222052677;2.112626972258675;3.6287982421338545
136;2.5420000000000016;-323;-1291;-1452;-445;-0.00018750572222052677;-0.00037501144444105353;2.1137520065919984;3.6299232764671774
137;2.561;-323;-1291;-1452;-445;-0.00018750572222052677;-0.00018750572222052677;2.1145020294808803;3.632360850856044
138;2.5790000000000006;-323;-1291;-1452;-445;-0.00018750572222052677;0.0;2.1184396496475113;3.632923368022706
139;2.5980000000000025;-323;-1291;-1452;-445;-0.00037501144444105353;0.0;2.1178771324808494;3.632735862300485
140;2.6159999999999997;-323;-1291;-1452;-445;0.0;-0.00018750572222052677;2.1178771324808494;3.6317983336893827
141;2.6350000000000016;-323;-1291;-1452;-445;0.0;0.0;2.1152520523697627;3.6334858851893674
142;2.654;-323;-1291;-1452;-445;-0.00018750572222052677;-0.00018750572222052677;2.1152520523697627;3.6321733451338236
143;2.6720000000000006;-323;-1291;-1452;-445;-0.00018750572222052677;0.0;2.1160020752586446;3.632360850856044
144;2.6910000000000025;-323;-1291;-1452;-445;-0.00018750572222052677;-0.00018750572222052677;2.116189580980865;3.630485793633839
145;2.7089999999999996;-323;-1291;-1452;-445;0.0;0.0;2.1156270638142036;3.628610736411634
146;2.7290000000000028;-323;-1291;-1452;-445;0.0;-0.00018750572222052677;2.1160020752586446;3.6321733451338236
147;2.748000000000001;-323;-1291;-1452;-445;-0.00018750572222052677;-0.00018750572222052677;2.1160020752586446;3.6321733451338236
148;2.766000000000002;-323;-1291;-1452;-445;-0.00018750572222052677;0.0;2.115439558091983;3.630485793633839
149;2.785;-323;-1291;-1452;-445;-0.00018750572222052677;-0.00018750572222052677;2.115439558091983;3.632923368022706
150;2.804000000000002;-323;-1291;-1452;-445;-0.00037501144444105353;-0.00018750572222052677;2.116189580980865;3.6325483565782646
151;2.8220000000000027;-323;-1291;-1452;-445;-0.00037501144444105353;-0.00037501144444105353;2.111876949369793;3.63086080507828
152;2.841000000000001;-323;-1291;-1452;-445;-0.00018750572222052677;-0.00018750572222052677;2.113376995147557;3.6346109195226908
153;2.8599999999999994;-323;-1291;-1452;-445;-0.00018750572222052677;-0.00018750572222052677;2.117689626758629;3.6325483565782646
154;2.878;-323;-1291;-1452;-445;-0.00018750572222052677;-0.00018750572222052677;2.1152520523697627;3.6325483565782646
155;2.897000000000002;-323;-1291;-1452;-445;-0.00018750572222052677;0.0;2.1156270638142036;3.631610827967162
156;2.9150000000000027;-323;-1291;-1452;-445;0.0;-0.00018750572222052677;2.117689626758629;3.6331108737449265
157;2.934000000000001;-323;-1291;-1452;-445;-0.00018750572222052677;-0.00018750572222052677;2.11806463820307;3.632360850856044
158;2.9529999999999994;-323;-1291;-1452;-445;-0.00037501144444105353;-0.00037501144444105353;2.115439558091983;3.6306732993560593
159;2.9720000000000013;-323;-1291;-1452;-445;0.0;-0.00018750572222052677;2.115814569536424;3.634048402356029
160;2.990000000000002;-323;-1291;-1452;-445;-0.00018750572222052677;-0.00018750572222052677;2.115439558091983;3.632923368022706
161;3.0090000000000003;-323;-1291;-1452;-445;-0.00018750572222052677;0.0;2.1171271095919675;3.632735862300485
162;3.027000000000001;-323;-1291;-1452;-445;-0.00018750572222052677;-0.00018750572222052677;2.1167520981475265;3.6321733451338236
163;3.0459999999999994;-323;-1291;-1452;-445;-0.00018750572222052677;-0.00018750572222052677;2.1148770409253212;3.6317983336893827
